draw,pearson_r,spearman_rho,cosine_similarity,sign_concordance,projection,frozen_score_log_hr
0,0.7109551489505257,0.5765217391304347,0.8509303199496372,0.9166666666666666,0.2484329726223989,0.11494243154243403
1,0.642107770791926,0.5365217391304348,0.8268094074740472,0.9166666666666666,0.32792432812072325,0.1463106509123443
2,0.13084263203125968,0.1252173913043478,0.5667817557947292,0.75,0.1898843891473708,0.08673109527866253
3,0.3050984273615854,0.18,0.6523569999383352,0.7916666666666666,0.22277306245814515,0.10160313446385151
4,0.5891220180254959,0.43043478260869555,0.8004362341241751,0.875,0.36824239761652916,0.1663939660040737
5,0.42328882127952044,0.33304347826086955,0.5710227661995482,0.5416666666666666,0.16162684072699815,0.07290259311811995
6,0.5077353073692961,0.3782608695652173,0.44240542758131174,0.5,0.11866636203030928,0.05293460070955876
7,0.574046329165468,0.5034782608695652,0.7988355713045789,0.8333333333333334,0.2778298652073927,0.12879458711817035
8,0.44353366623368207,0.29304347826086957,0.7114821248094823,0.7083333333333334,0.27117580835577665,0.11886731933332269
9,0.14779979113251768,0.015652173913043476,0.6235259294507818,0.7916666666666666,0.2211070207917908,0.10145143884774883
10,0.4662005059787165,0.32521739130434785,0.6892496870290279,0.75,0.3302748953429334,0.14627784327044027
11,0.15388931857730764,0.03565217391304347,0.677804541592079,0.875,0.2922822254210188,0.13693732696701513
12,0.3581298450379898,0.2860869565217391,0.7036776402243552,0.8333333333333334,0.27629778415848505,0.12306132715215208
13,0.45708373923828566,0.4130434782608695,0.7192131076454209,0.6666666666666666,0.2913850202571379,0.1324672913949484
14,0.34921806172971026,0.3043478260869565,0.7071853782647969,0.8333333333333334,0.28218728208901245,0.12818681113479766
15,0.625465834777113,0.5060869565217391,0.8121296642639467,0.8333333333333334,0.34968923554690984,0.15940119331080863
16,0.32294530984092445,0.25130434782608696,0.7054729867233909,0.7916666666666666,0.3188472912366485,0.1436204890564927
17,0.1932032028639531,0.09652173913043478,0.6110388719172287,0.8333333333333334,0.2424349256267391,0.11026813322811699
18,0.319063205424128,0.2539130434782608,0.5588917042546283,0.7083333333333334,0.15936951648686423,0.07243206518539651
19,0.47343703435037443,0.3,0.64080775188182,0.5833333333333334,0.169330474029537,0.07579907388707335
20,0.3999734243784827,0.3347826086956522,0.6759490727445171,0.7083333333333334,0.279636863887296,0.12109975204772645
21,0.4638241718238256,0.37217391304347824,0.7491336371354488,0.7916666666666666,0.2706523432399892,0.1255244744308199
22,0.5140634169271102,0.3921739130434782,0.7622274642782824,0.875,0.25173224540709355,0.11890660999262534
23,0.3815601601401494,0.2652173913043478,0.7256730212864974,0.7916666666666666,0.29048910392087524,0.13283436540496563
24,0.5034944949572264,0.37217391304347824,0.7535347939289397,0.75,0.315147429963946,0.14339673625881671
25,0.47924790316059995,0.33391304347826084,0.684346891727973,0.7083333333333334,0.2429461744975848,0.10861134825228887
26,0.49170210849412005,0.40782608695652167,0.7198772312027758,0.75,0.26744405665938653,0.11823980088377894
27,0.43550485210445866,0.3052173913043478,0.6820950699898831,0.7083333333333334,0.11932487135605745,0.05657342553492607
28,0.2935080027956652,0.16869565217391302,0.35548786018020156,0.5,0.08629054950868188,0.038729908339736094
29,0.586880050381797,0.47478260869565214,0.778030673509504,0.75,0.305133618779408,0.13624048755077137
30,0.3920193312918685,0.2626086956521739,0.6879947801755214,0.7083333333333334,0.3145552446174578,0.14129545235169905
31,0.6688739158870153,0.6113043478260869,0.8308191120351807,0.75,0.3280069280462007,0.1492946939441539
32,0.6228588543452352,0.49304347826086947,0.7003068080488921,0.625,0.17853600826159588,0.08219216174409454
33,0.5806194464780873,0.4626086956521739,0.7310509263243093,0.5833333333333334,0.19274246623880661,0.08906889123317245
34,0.39200287324263017,0.2652173913043478,0.7199284813562192,0.7916666666666666,0.30718228686719184,0.14039976378304928
35,0.5798364793603401,0.37478260869565216,0.7961830208915728,0.9166666666666666,0.26374554726782146,0.12145839268905115
36,0.2242214697602171,0.1417391304347826,0.5726276649096407,0.6666666666666666,0.23690997719091444,0.10529526386250793
37,0.6061275635352492,0.5034782608695652,0.7832663631437206,0.7916666666666666,0.14980171119001828,0.07095462179968504
38,0.6427067817029934,0.5817391304347826,0.7636926147357554,0.6666666666666666,0.20993787767690045,0.09641500595856357
39,0.5154596004447048,0.3869565217391304,0.743679828521945,0.75,0.31215181061721914,0.14114261448840235
40,0.5854860256001727,0.40434782608695646,0.7836571069330145,0.6666666666666666,0.3140053889227624,0.14101780721270238
41,0.288660025851927,0.23739130434782607,0.49049728069541493,0.6666666666666666,0.13928252955313294,0.06445110793313497
42,0.5297602724608838,0.4495652173913043,0.7731818218763054,0.7916666666666666,0.31875937815378347,0.14592285385067869
43,0.5123400697475065,0.4278260869565217,0.7524280415680663,0.7916666666666666,0.30359696510978257,0.13401332529494697
44,0.47508481766292576,0.368695652173913,0.756164307637194,0.8333333333333334,0.3410321984823625,0.15312318091257934
45,0.5124056217804192,0.5956521739130434,0.715917327109337,0.7916666666666666,0.17840742983570326,0.08324904157585368
46,0.5015628640672325,0.4452173913043478,0.771524747233642,0.8333333333333334,0.32614072368805436,0.14838559939305518
47,0.1980501118567664,0.04347826086956521,0.6536052823005395,0.875,0.20340113549065136,0.09338673117855611
48,0.5119539461064041,0.3556521739130434,0.728322976689921,0.7083333333333334,0.3212549394934455,0.14357429049977702
49,0.43591104614724907,0.3008695652173913,0.41152169387131476,0.5,0.12895179829234102,0.058008205566380845
50,0.4100338567279539,0.3304347826086956,0.6359338738113747,0.625,0.19886093292455906,0.08876395859125337
51,0.24090275993239837,0.13826086956521738,0.593796482343079,0.625,0.23292992190991918,0.10264692554380704
52,0.37881969273267835,0.01217391304347826,0.6148154115155067,0.625,0.1388065664173948,0.06353935928369585
53,0.40039103881601146,0.18347826086956517,0.6169045319603417,0.6666666666666666,0.19798472688945007,0.08760795595443965
54,0.375848069222667,0.25130434782608696,0.6892942753019362,0.7083333333333334,0.2749319209431878,0.11978049815394513
55,0.4474007612107686,0.3904347826086956,0.7072517899441995,0.7083333333333334,0.2516927879457509,0.11477342821862248
56,0.5583086131800589,0.4782608695652173,0.6882979838534179,0.5416666666666666,0.2797787945361242,0.12323664339963375
57,0.709312319168925,0.6295652173913043,0.8365582390733007,0.75,0.33755425855701493,0.15508473308326062
58,0.5328756062781097,0.34347826086956523,0.6164346481847912,0.5833333333333334,0.12204137563350174,0.05695505905617505
59,0.6191895720013454,0.4234782608695652,0.7283584166954505,0.8333333333333334,0.21263800606092195,0.09740064791255337
60,0.3189092180884001,0.14782608695652172,0.6143856508177985,0.75,0.15563496805637445,0.07122191125970416
61,0.554330431377465,0.37652173913043474,0.7584967706712279,0.75,0.2546918198089274,0.11705410672929983
62,0.57235716459791,0.5434782608695652,0.6938294813723733,0.5416666666666666,0.2363133695425912,0.10633764567354065
63,0.3482550053540269,0.23826086956521736,0.6503081979787596,0.7083333333333334,0.24175143775488142,0.10783353401960921
64,0.5036016108958283,0.39652173913043476,0.5823427712224233,0.625,0.1639487145225187,0.07652062739954416
65,0.33171816916872826,0.29565217391304344,0.6278175937239284,0.6666666666666666,0.2085748607997488,0.0947418012856013
66,0.3140220514915613,0.21739130434782608,0.7146460962128203,0.875,0.33327222433564563,0.14876997580633175
67,0.34157319423025073,0.17565217391304347,0.6725064645193211,0.7083333333333334,0.1961775079579059,0.0880962500173176
68,0.7157284545980621,0.606086956521739,0.8584366638628468,0.875,0.32165181436702023,0.14617837442501247
69,0.07111269675499968,0.034782608695652174,0.09010031358750492,0.5416666666666666,0.017892064683100582,0.007166573014812398
70,0.45998808513100137,0.34956521739130436,0.7062869000369292,0.75,0.21173808017260887,0.09592478532687757
71,0.471587743640434,0.46086956521739125,0.7590450050288642,0.7916666666666666,0.3921784852272012,0.17632215386127695
72,0.5916190967302987,0.40086956521739125,0.7793263095313444,0.875,0.20781506687194776,0.09689595150099947
73,0.42113219627653087,0.3217391304347825,0.5923739035201792,0.5416666666666666,0.15604337997336457,0.07082297555463737
74,0.624774842435765,0.5313043478260869,0.5772544343183847,0.5,0.1558206299259108,0.06872821317065593
75,0.5248206389918206,0.38,0.721216416392307,0.7083333333333334,0.2522534677947388,0.11372644937738596
76,0.43444580819539924,0.22347826086956518,0.7176448335221892,0.8333333333333334,0.2924461533527385,0.13082237873085295
77,0.48659983423420755,0.45217391304347826,0.767166470464507,0.875,0.3169669308563582,0.14433607345498886
78,0.5361683781935191,0.2843478260869565,0.6748069451821437,0.5833333333333334,0.20592094455516383,0.09348525652522624
79,0.3797361844854732,0.24608695652173912,0.6495115876761733,0.7083333333333334,0.17815801464124778,0.08338367374641524
80,0.62675659776992,0.5017391304347826,0.801564637752118,0.7916666666666666,0.3204615606539652,0.14906898627088938
81,0.4748599360024586,0.3652173913043478,0.6868239189619726,0.75,0.25735717830380134,0.11421749650745126
82,0.5202146818711282,0.39652173913043476,0.7472513809643221,0.7916666666666666,0.27274713477326384,0.12129189467442615
83,0.16122531586229077,0.02869565217391304,0.44094833441490944,0.5416666666666666,0.1107555098820028,0.049164806813871
84,0.32789402476114893,0.18347826086956517,0.6660711458249623,0.7083333333333334,0.23209344427719752,0.10604556273640663
85,0.1880033409160742,0.1408695652173913,0.5145774028590961,0.6666666666666666,0.1505120367237975,0.06718807648354508
86,0.273865264105958,0.1026086956521739,0.6571286031839785,0.7916666666666666,0.2693147192401955,0.12212480838063465
87,0.5371578442074283,0.4460869565217391,0.7679193185011788,0.75,0.2866440568607214,0.12764172980899138
88,0.5237223531897697,0.4252173913043478,0.7227396532210086,0.75,0.2357640286558554,0.10801500629526159
89,0.4569873357943348,0.32434782608695645,0.7511878296555897,0.8333333333333334,0.2722245102165275,0.1253714005748966
90,0.21151453584213092,0.13217391304347825,0.5093300848578161,0.75,0.14713850191368824,0.06793543959476044
91,0.21756520283163855,0.19478260869565217,0.5979362543355767,0.7916666666666666,0.15398568070053856,0.07122523095471596
92,0.30857411900222104,0.15391304347826085,0.6809193242356554,0.7916666666666666,0.25429144368737894,0.1165280996079677
93,0.4880679533371142,0.4991304347826086,0.7612444042664325,0.9583333333333334,0.3383562152759746,0.14935937494862891
94,0.37390187882251047,0.31913043478260866,0.7195947840829848,0.8333333333333334,0.2193766588926603,0.10074759554704249
95,0.509285717047397,0.38608695652173913,0.7508562323111941,0.8333333333333334,0.3194955434166564,0.14525899020938013
96,0.6342403791706452,0.4721739130434783,0.8065584964256006,0.7083333333333334,0.29473548740613725,0.13448612441584484
97,0.586414871543621,0.42,0.5694953926926973,0.4583333333333333,0.16392927848401406,0.0737311553524074
98,0.7246996361192195,0.5747826086956522,0.857199613744729,0.75,0.30804762702678934,0.1405610170375227
99,0.30429626586319763,0.25217391304347825,0.48819525979804956,0.7083333333333334,0.12803440079386272,0.0562988088778491
100,0.187728562625559,0.09478260869565217,0.5311413646183211,0.625,0.15414352044968316,0.07147422929667638
101,0.6606754130448864,0.5217391304347825,0.832319987997958,0.875,0.3687685068903039,0.1678879543652471
102,0.49245379202463546,0.4208695652173913,0.6427353258766633,0.625,0.18454069363885775,0.08308477525617498
103,0.5943654617837586,0.47043478260869553,0.7819855011027302,0.7916666666666666,0.20215711543585188,0.09554908299010932
104,0.3628523100289147,0.32347826086956516,0.6431202356741943,0.6666666666666666,0.24889469292588995,0.11183099323507888
105,0.555467246849881,0.3904347826086956,0.7887128191686992,0.875,0.3364891645153066,0.15331274977219778
106,0.4749689121451886,0.38608695652173913,0.7399168641295073,0.7916666666666666,0.2630409841225426,0.12135269691823634
107,0.731911796342124,0.5443478260869564,0.8660865515707102,0.875,0.33793535092159227,0.15317597918211256
108,0.5960373134980133,0.3956521739130434,0.6266282013081774,0.5833333333333334,0.17171244730007648,0.07925812055925376
109,0.5847639946869319,0.47043478260869553,0.7269961475532445,0.7083333333333334,0.3188670075333231,0.14683233924965092
110,0.6337664552369306,0.5295652173913042,0.8023256776805656,0.7916666666666666,0.35792861853287283,0.1603230691789966
111,0.6121078986544307,0.5626086956521739,0.802569720328879,0.875,0.2883457271683765,0.12984781868669298
112,0.6917411626240522,0.5452173913043478,0.8469481222465999,0.875,0.29841084842099863,0.13703492123431546
113,0.5042813729298706,0.4278260869565217,0.7337330428333166,0.7083333333333334,0.36401836107404895,0.16186194556251365
114,0.5789721473172075,0.42956521739130427,0.7451467571677068,0.5833333333333334,0.2332703795726404,0.10564242546742261
115,0.4709239648758051,0.3947826086956522,0.7313287863490642,0.7083333333333334,0.2774477242249612,0.12546573426298255
116,0.3901903514907224,0.3017391304347826,0.7256688907909699,0.7916666666666666,0.3116620271788666,0.1413029770342644
117,0.6116511694127518,0.5043478260869565,0.8111052092155996,0.875,0.3838790691195132,0.17540008989717285
118,0.40675512252540236,0.2008695652173913,0.361348757441219,0.4583333333333333,0.08850847229141541,0.03962917074912498
119,0.32551744766552315,0.2713043478260869,0.6637180413252045,0.7916666666666666,0.2898902510078961,0.12858356681080832
120,0.46970155432311933,0.3173913043478261,0.732889213431548,0.7916666666666666,0.2543317895760874,0.11250104949476125
121,0.3865990485889436,0.33304347826086955,0.6078675192586318,0.6666666666666666,0.23162314591013264,0.09834809962702917
122,0.4760209424028453,0.33739130434782605,0.7472512884670376,0.7083333333333334,0.28744186752499706,0.12976177276153714
123,0.5886965374656308,0.45217391304347826,0.8039038063160057,0.9166666666666666,0.40007166641555286,0.17885529837881523
124,0.5398282684039393,0.34956521739130436,0.7011668930178164,0.7083333333333334,0.25451837769844915,0.11217080675947926
125,0.5958142627206093,0.5869565217391304,0.7938336541450957,0.7083333333333334,0.32971777264974245,0.1502211271136354
126,0.5838215338021591,0.4313043478260869,0.7535102041174093,0.75,0.283074461670725,0.12633172033655168
127,0.39956371513623157,0.35130434782608694,0.7030151086014085,0.75,0.3542772196071772,0.1546816742780156
128,0.6534483498754596,0.45217391304347826,0.8186660115627511,0.8333333333333334,0.2912854371797396,0.1308923834601194
129,0.5988337702294972,0.5165217391304348,0.8085781035026745,0.8333333333333334,0.3374148901492212,0.15383797416643666
130,0.3897392010878903,0.2782608695652174,0.669942092663885,0.6666666666666666,0.16150803318046905,0.07422875758449583
131,0.47479930126284653,0.36347826086956525,0.6515487783637285,0.5833333333333334,0.21664290449205537,0.09658730227319472
132,0.3921637183542443,0.36347826086956525,0.701764503340917,0.7916666666666666,0.23804602929676175,0.11096364797187835
133,0.2825972396028677,0.19043478260869565,0.6861922621393421,0.8333333333333334,0.2368261105542852,0.11047567840315142
134,0.5181797002010798,0.37478260869565216,0.7628517121793376,0.75,0.2887254120569243,0.1346454186861315
135,0.4011337767415291,0.25652173913043474,0.6862624140040626,0.7083333333333334,0.25806986692781736,0.11581817553356405
136,0.5658061940488781,0.34521739130434775,0.6761347928324613,0.5416666666666666,0.21485359463174902,0.09893717531940323
137,0.4842257182082962,0.38260869565217387,0.7550941768182875,0.75,0.40118525592964843,0.17527480549203317
138,0.5714337925734654,0.4730434782608695,0.7974082965850269,0.8333333333333334,0.4204766971611945,0.1913000301636168
139,0.25920340213555504,0.19565217391304346,0.5974395661338378,0.7083333333333334,0.15039731775669504,0.06601172980469465
140,0.5210578955335272,0.4234782608695652,0.650152440880226,0.625,0.18113952421345533,0.08329866347414955
141,0.5804428186463981,0.5078260869565216,0.6165218032120456,0.625,0.13225019824978682,0.0602085627965701
142,0.34244026134776756,0.21913043478260866,0.6778827365205293,0.7916666666666666,0.3015552517120964,0.1301957985000342
143,0.40345469072580764,0.32,0.7179930390295832,0.8333333333333334,0.23492657234665204,0.10406457094748843
144,0.4089486057074651,0.19652173913043475,0.6713282833035293,0.7916666666666666,0.21198307398268232,0.0943163915692944
145,0.45847136007998956,0.3852173913043478,0.6891107247059488,0.6666666666666666,0.1954062956614585,0.08729369616734797
146,0.25175438344460344,0.16086956521739126,0.568732402126659,0.625,0.1677050200154071,0.07503637190467011
147,0.12639049390540655,0.13391304347826086,0.3905530661348079,0.625,0.07976755977452564,0.03665079732083745
148,0.37843191573158835,0.25565217391304346,0.2779799270251113,0.5,0.06084403317875868,0.02736842355407792
149,0.3546668526209127,0.2278260869565217,0.598793874491672,0.6666666666666666,0.1757761638750589,0.07812669172454938
150,0.3142751647678065,0.2539130434782608,0.6611796886161352,0.875,0.23288115776905427,0.10499016549264997
151,0.2562039950997029,0.19565217391304346,0.5725015620949101,0.625,0.2147025675532799,0.10048319194036717
152,0.6311910367068719,0.4513043478260869,0.7735985165532109,0.6666666666666666,0.28931863851899137,0.12794950830033977
153,0.5504152203582149,0.5130434782608695,0.7015042753304722,0.625,0.218769205391756,0.09836536157282455
154,0.7531730696649889,0.6017391304347826,0.8265707616094947,0.5833333333333334,0.2991957937553691,0.13498165635560774
155,0.5595477550298609,0.3678260869565217,0.77201834162519,0.7916666666666666,0.43693784217075643,0.19076690330577942
156,0.625783003608271,0.32347826086956516,0.7850835449947146,0.625,0.2768842090089684,0.1254160668854028
157,0.6747296111167321,0.5260869565217391,0.8036435640804568,0.75,0.2251338976862726,0.10343141866813456
158,0.28982826063152944,0.23130434782608694,0.7009481131234502,0.875,0.23016638730573302,0.10579761696969493
159,0.5384593829025467,0.39826086956521733,0.7834761632399816,0.8333333333333334,0.34100292792704284,0.15434351167000376
160,0.34067788816666605,0.3408695652173913,0.6831292763950941,0.7916666666666666,0.29095781839994395,0.13099381161867038
161,0.524289543207801,0.43304347826086953,0.7803015728057152,0.875,0.3661664919370256,0.16345296866266323
162,0.680994421611912,0.4991304347826086,0.8238405646051482,0.7916666666666666,0.2175602303615936,0.1005698804544284
163,0.253232112748702,0.1417391304347826,0.6305085133240997,0.75,0.24652182907015865,0.11389672608526943
164,-0.05315268820794779,-0.1417391304347826,0.34764373343495886,0.5833333333333334,0.08804509144810259,0.03971455722222969
165,0.7270132626270753,0.5991304347826086,0.8406130142745412,0.6666666666666666,0.2737505290566629,0.12264340559779725
166,0.4830560600851688,0.36173913043478256,0.7355707895485567,0.7916666666666666,0.2349718712779148,0.10910570179689719
167,0.3894554677015803,0.3173913043478261,0.5355053217362694,0.7083333333333334,0.13800099256731216,0.06328255990824315
168,0.5457869609140833,0.48956521739130426,0.6948359736465536,0.75,0.19700306937132367,0.09221562002446076
169,0.5180450713309194,0.37478260869565216,0.6489024524847874,0.5833333333333334,0.18979512980626242,0.08308048712813092
170,0.5549917239118068,0.4130434782608695,0.7418753151199048,0.8333333333333334,0.26511085074546126,0.11631752088950144
171,0.49262885667117595,0.37478260869565216,0.7277319434608076,0.75,0.2675155665556681,0.1219900162536331
172,0.5877827157252904,0.40782608695652167,0.7252614258823268,0.5833333333333334,0.32616806426070416,0.14537814527115042
173,0.5883092248083068,0.38956521739130434,0.7168862419797987,0.7083333333333334,0.17782243318125204,0.0815245542148534
174,0.591051551692551,0.3652173913043478,0.803594582471557,0.875,0.34589950194733676,0.15665270520039135
175,0.45820695098277936,0.2869565217391304,0.7536865826641245,0.8333333333333334,0.3237991930743409,0.14586831899919145
176,0.46276303959614506,0.3504347826086956,0.7451353097027853,0.875,0.23435096637444022,0.1076198987677086
177,0.5701011560204372,0.39739130434782605,0.7036050148904883,0.625,0.1614420905550786,0.07408676404857167
178,0.44214613987848295,0.29130434782608694,0.5125971349744718,0.4583333333333333,0.1260218136962953,0.05494858924570445
179,0.5117117517482803,0.3869565217391304,0.7580079720560563,0.75,0.26170995108158757,0.12143329778629466
180,0.4365052001883021,0.3652173913043478,0.6860911057774481,0.8333333333333334,0.25260781277919026,0.11312961330241393
181,0.5891313829936486,0.4452173913043478,0.6915422867168114,0.625,0.21020946010983102,0.09347246574636689
182,0.45692332050568024,0.37478260869565216,0.7427632443205049,0.8333333333333334,0.193420436863808,0.08855867602814989
183,0.43178683606883117,0.3652173913043478,0.7403416996109642,0.8333333333333334,0.38720204726851265,0.17799663326999698
184,0.5888890932071751,0.41826086956521735,0.7672001408567265,0.7916666666666666,0.21278298115269953,0.09684587333580082
185,0.1429517469650122,0.054782608695652164,0.6666107219186223,0.875,0.3922344532191346,0.1782319829709783
186,0.3792092989847545,0.3069565217391304,0.7043320435319844,0.6666666666666666,0.24336263307656877,0.11179791894406572
187,0.7458904375071949,0.6617391304347826,0.8324691340918462,0.7083333333333334,0.31722098434996787,0.1388321437987559
188,0.5972698001987325,0.4834782608695652,0.7136982282159792,0.5416666666666666,0.23494899868456576,0.10579650789003445
189,0.49645775951854065,0.36,0.7003034138691405,0.625,0.2378068485501781,0.10621804705802756
190,0.6599807379059599,0.5469565217391303,0.834396614198157,0.8333333333333334,0.28625488126614923,0.13239912485496605
191,0.179008214767285,0.1408695652173913,0.4389718692071609,0.5833333333333334,0.12311227642462401,0.057316588087004516
192,0.5680712365759775,0.4756521739130434,0.7904820115078738,0.875,0.3867700854749446,0.17274286575101436
193,0.39035813337519576,0.2965217391304348,0.7235180859243492,0.8333333333333334,0.26551616818294044,0.12169219609140372
194,0.6008089825458378,0.5234782608695652,0.8046534682344437,0.8333333333333334,0.31680679334550255,0.14241804704394584
195,0.26075053937366977,0.1417391304347826,0.6830218091344046,0.8333333333333334,0.23255750498243202,0.10758253661128903
196,0.6461558031315127,0.45217391304347826,0.6306705428926741,0.5833333333333334,0.1596788197909415,0.07200190346887912
197,0.5449829175568783,0.4460869565217391,0.7529414792276913,0.8333333333333334,0.2835970304419454,0.12310627903292441
198,0.662845873738634,0.5582608695652173,0.7862471117801682,0.625,0.2816799332204319,0.12790657146610437
199,0.4113601073728978,0.2860869565217391,0.7318791979656253,0.8333333333333334,0.23139625981565365,0.1040206733820259
200,0.7150127117642293,0.6069565217391303,0.5460479448720453,0.5833333333333334,0.11155571976324465,0.05413618540679216
201,0.437553150606373,0.3521739130434782,0.3106448114001506,0.5833333333333334,0.08782015150229316,0.036735997191345154
202,0.5793409411628218,0.49391304347826087,0.7845435125623433,0.8333333333333334,0.3027317228347036,0.1378874140350937
203,0.36622274259712007,0.24,0.6717941382788355,0.8333333333333334,0.23067037723961376,0.10516417038068737
204,0.6817165616284129,0.5913043478260869,0.841523528846892,0.8333333333333334,0.34334448948088503,0.15601936507918418
205,0.5768984562437184,0.4478260869565217,0.7554265448940828,0.75,0.2335620386682089,0.10706693584916363
206,0.5059758508786734,0.35130434782608694,0.7733234246036735,0.8333333333333334,0.32262854401105956,0.15039086967632542
207,0.25577692127673757,0.17652173913043476,0.49801559707344056,0.5,0.16155648807496076,0.07113332213040899
208,0.18581705417553862,0.03043478260869565,0.447329718254078,0.7083333333333334,0.08937594933003337,0.04077934835806257
209,0.5855551739314888,0.4434782608695652,0.7904428522379183,0.6666666666666666,0.30162234130327387,0.13719827476571045
210,0.36326906055268077,0.2817391304347826,0.6799205304168728,0.75,0.28102829710390703,0.12867614559140877
211,0.2324509930153428,0.11913043478260868,0.67739766697767,0.8333333333333334,0.2762136548527437,0.12677438691521853
212,0.5475552698338537,0.3208695652173913,0.7890665134139777,0.8333333333333334,0.22074867662915906,0.10403748789623841
213,0.5951994862716862,0.437391304347826,0.7607190919550215,0.6666666666666666,0.20515570194426858,0.09679328968863476
214,0.32588837419803995,0.248695652173913,0.7035297341303556,0.9166666666666666,0.3427127716487969,0.1551904572967657
215,0.35159330782476694,0.2278260869565217,0.6846403344935762,0.7916666666666666,0.2974874544993467,0.1311243316328875
216,0.47832841336745224,0.4052173913043478,0.5635169948302691,0.5416666666666666,0.21234190703690556,0.09258653640152865
217,0.5007580095585684,0.42,0.7357159535478615,0.7916666666666666,0.3100755804796101,0.13713699648530983
218,-0.07994985794686782,-0.09391304347826085,0.442407337836903,0.75,0.16581167334176142,0.07270668694126083
219,0.4536851390052306,0.2617391304347826,0.7203249597724373,0.7916666666666666,0.2424090561871719,0.11087255707695516
220,0.5994151170649277,0.5234782608695652,0.8055404585326219,0.875,0.284719626614578,0.12782912457493656
221,0.3740874191192686,0.38869565217391305,0.5875373126231921,0.6666666666666666,0.1754666506764523,0.08247988339160571
222,0.5997593579382028,0.5313043478260869,0.4708772009413721,0.5833333333333334,0.11407585605881002,0.05312319876042684
223,0.49429556180447565,0.3313043478260869,0.7695088131345972,0.875,0.3252998738104083,0.14659469091845664
224,0.5034598832463967,0.2904347826086956,0.7169614420238671,0.7083333333333334,0.28069716549269164,0.12467161007007654
225,0.2875374344564508,0.2121739130434782,0.6653999246620584,0.8333333333333334,0.2833736575375481,0.12900761226105703
226,0.43471130400860064,0.2791304347826086,0.6416740880822616,0.625,0.23769606664956908,0.10339206896941823
227,0.494139717446923,0.33826086956521734,0.7613126196638087,0.8333333333333334,0.42318730471969507,0.18856664751234561
228,0.5974886833583193,0.4026086956521739,0.6081135803361267,0.5,0.18117100246580886,0.08042495924386746
229,0.3807809643625683,0.268695652173913,0.7203352367962512,0.8333333333333334,0.34185763054828255,0.15320846344254002
230,0.6696654389344836,0.5678260869565217,0.7710807499303566,0.625,0.2676227250372157,0.12172945038875745
231,0.5138456451825472,0.42956521739130427,0.7605245740389494,0.7916666666666666,0.3857817001960043,0.16814991914051983
232,0.6080467224343342,0.48086956521739127,0.7579094417764,0.6666666666666666,0.30448685294275485,0.13432563416679602
233,0.2690417074248417,0.23826086956521736,0.6245882374476743,0.7083333333333334,0.24648651560231696,0.11263067890264455
234,0.265836870437771,0.15130434782608695,0.6041924279921109,0.7083333333333334,0.2711715592003505,0.12317332329683023
235,0.5839296337337301,0.47478260869565214,0.5427404612687224,0.5416666666666666,0.1598768256731334,0.07037392214236236
236,0.5161225676330746,0.4060869565217391,0.7591462956300766,0.7083333333333334,0.33942919981676195,0.151702470540075
237,0.5712515578667905,0.31652173913043474,0.6802405711787388,0.5,0.16436234809632963,0.07647371045637257
238,0.5867529602361489,0.45739130434782604,0.735696130934599,0.6666666666666666,0.19787352679375242,0.09262367408679284
239,0.47503920590120796,0.3504347826086956,0.4610799679726171,0.5,0.08469424244313618,0.04055453858082639
240,0.3327408178246086,0.1652173913043478,0.6709099549381186,0.75,0.24633410522178814,0.11188510729817355
241,0.6209813445140034,0.437391304347826,0.7945289291356976,0.75,0.24302487224040994,0.11178269688741829
242,0.353747597374493,0.12869565217391304,0.5061270811814924,0.4583333333333333,0.09609220283258937,0.045950363139600305
243,0.6679382511267349,0.44434782608695644,0.8209253664259519,0.7916666666666666,0.25835358146178006,0.11511230078030467
244,0.26851980213866766,0.07913043478260869,0.6674840067145826,0.7916666666666666,0.2433884171647681,0.11193420697366656
245,0.560665607449935,0.34956521739130436,0.7902151895263733,0.7916666666666666,0.22062629174349963,0.10141691728011529
246,0.6385715245194625,0.5278260869565217,0.81585523404711,0.7916666666666666,0.334590085646163,0.1486833044302171
247,0.22741919108905617,0.09652173913043478,0.6250259350567838,0.7916666666666666,0.25325491179126275,0.1142832581131639
248,0.26913562065337504,0.15739130434782608,0.32263252103906176,0.5,0.07463418370463462,0.032250099215506776
249,0.5114639649798454,0.368695652173913,0.7342819084487343,0.6666666666666666,0.3084226295756899,0.1378338577180338
250,0.13355899320996034,0.08869565217391304,0.5897943346150225,0.75,0.22145025128272203,0.10245329395561756
251,0.4783427358018976,0.3565217391304348,0.7439876850567878,0.7916666666666666,0.286158008614688,0.12476022235253159
252,0.1251594217924263,0.06,0.44431631169694347,0.7083333333333334,0.16053131793663286,0.07015681801437014
253,0.5857555400199944,0.3530434782608695,0.7791877517439978,0.7916666666666666,0.3375009780973904,0.14594350369197043
254,0.5289948300235521,0.437391304347826,0.7638743290383683,0.8333333333333334,0.31650690988542185,0.14061675662888612
255,0.6206695478515419,0.37652173913043474,0.8123283831702947,0.875,0.2951131989575541,0.13690663002155576
256,0.4260291241468911,0.32,0.6713187439000812,0.6666666666666666,0.1843574447581859,0.08812019961531455
257,0.10915331493610131,0.05652173913043478,0.6335103034644152,0.7916666666666666,0.21748977564332958,0.10314696529540852
258,0.304897790578056,0.13217391304347825,0.7013429012561843,0.875,0.23516296884560603,0.10735728275191589
259,0.5569497257577167,0.4052173913043478,0.7902719430362293,0.9166666666666666,0.28963169145270756,0.1301732353678183
260,0.14112013973424167,0.04434782608695652,0.38817425500777913,0.625,0.09532265923793007,0.04286009862395185
261,0.2707875349397231,0.1469565217391304,0.5913875181603528,0.7083333333333334,0.2144760116718696,0.09439133410036542
262,0.6382747250445572,0.6,0.8237805676664064,0.875,0.3680385850325772,0.16778529937458717
263,0.30479707291351865,0.21565217391304345,0.606767692125162,0.6666666666666666,0.1545926092362295,0.07116157870623396
264,0.5370792479118471,0.38,0.784300239916274,0.875,0.32780065436528577,0.15157385612383092
265,0.3857941849677141,0.3060869565217391,0.7213544545831223,0.8333333333333334,0.32460771211277956,0.14571585053520114
266,0.5470336302710663,0.3739130434782608,0.7245568342503168,0.625,0.2185757656034794,0.09984590454048753
267,0.36890091937260394,0.3426086956521739,0.7263993311612615,0.7916666666666666,0.29797459466935694,0.136784992039293
268,0.4466803652311948,0.39826086956521733,0.7218925800697334,0.7083333333333334,0.30753657712119176,0.14130376453048066
269,0.5032330290625382,0.30347826086956514,0.763761915868208,0.875,0.2723410548495601,0.12316567207878622
270,0.6188323705812647,0.5669565217391304,0.7707496015522876,0.75,0.26908050025720165,0.1259218663113035
271,0.3578212211091808,0.20434782608695648,0.49161789985105453,0.5,0.11088036202616144,0.049288359455701605
272,0.5302065140956513,0.40869565217391296,0.767741302717668,0.75,0.30209768430275424,0.1374348828095349
273,0.4939473820939583,0.31652173913043474,0.7507979054717691,0.7083333333333334,0.22412576254170327,0.10366076303841712
274,0.4336527012279187,0.3208695652173913,0.7403764295217596,0.8333333333333334,0.30941361648397075,0.14082497025497873
275,0.6765189632292364,0.551304347826087,0.7836482240574572,0.5833333333333334,0.26981107233179635,0.12265037461036347
276,0.5743033801788393,0.5078260869565216,0.7614410312792358,0.75,0.3140384236020968,0.13899159299121452
277,0.4350141522712282,0.25999999999999995,0.7008550139151746,0.75,0.25121104514139525,0.11107344987441807
278,0.28337831836511124,0.21478260869565213,0.5050305319812862,0.5833333333333334,0.1612465409460112,0.07340255969882822
279,0.3957393535852018,0.2965217391304348,0.6316732182671562,0.625,0.16818540510113636,0.07533527761358284
280,0.5377506247505116,0.47913043478260864,0.7847910079141546,0.8333333333333334,0.4655861295713142,0.20800471602042478
281,0.3985949194138453,0.3095652173913043,0.373218145940667,0.4166666666666667,0.10213009253387716,0.047082442615094235
282,0.7707443843463347,0.6521739130434783,0.8610018416704439,0.7083333333333334,0.2829360799471768,0.13011973300644394
283,0.333046769666368,0.23478260869565212,0.454121540237975,0.625,0.14802300557048712,0.06540911113864499
284,0.44833113299451555,0.3356521739130434,0.6512241595853066,0.625,0.18897661275943026,0.08288840247181294
285,0.2804271146461229,0.24260869565217388,0.5982572204144528,0.7916666666666666,0.18161740122725523,0.08266316293371563
286,0.2839090671607191,0.22347826086956518,0.632953672094254,0.7916666666666666,0.17904023808895606,0.08346494593281459
287,0.41540334498979925,0.36260869565217385,0.7303262864372185,0.7916666666666666,0.3527919046575958,0.16023346974437985
288,0.5509186530043618,0.40956521739130425,0.7758931912009746,0.875,0.24461298294954664,0.11358816458144397
289,0.2970531747750475,0.3121739130434782,0.664427361222762,0.75,0.280198419878696,0.1308046386738573
290,0.4598618193425932,0.2434782608695652,0.7526125416729057,0.875,0.2627054569839462,0.11978022685498661
291,0.6146991190806205,0.5104347826086956,0.8148321346674224,0.8333333333333334,0.2886220889564739,0.13253449642716195
292,0.6182700124905919,0.5234782608695652,0.7991106474677974,0.8333333333333334,0.27681948305494336,0.12530983150744252
293,0.6033273252551787,0.5026086956521739,0.7028042184596001,0.7083333333333334,0.19437646855523003,0.08833924526428287
294,0.5922013770422553,0.39391304347826084,0.7055746315761412,0.625,0.20662157015831745,0.09112389053786432
295,0.5819848481354986,0.5460869565217391,0.7900245311702891,0.7916666666666666,0.3924339719775372,0.17503623498504792
296,0.6603422995091088,0.5365217391304348,0.7658523803312767,0.6666666666666666,0.21155120784147785,0.09524298071852794
297,0.26641571082894605,0.29130434782608694,0.35179526640838327,0.625,0.07631291993151856,0.03710709389517909
298,0.12137126756403027,0.05826086956521739,0.4348440291171805,0.625,0.11426417598302333,0.051551871183864686
299,0.527865446839653,0.4539130434782608,0.768333729279393,0.8333333333333334,0.31286648513471654,0.13942729397551615
300,0.3838078133460075,0.29739130434782607,0.719496839272872,0.8333333333333334,0.28442046211836697,0.12851621123988288
301,0.28334663270377747,0.22,0.6730669387611338,0.7083333333333334,0.2833761987745307,0.12812430830854332
302,0.33291801982713,0.2582608695652174,0.4587854715046572,0.625,0.11282708285332371,0.05044708695814682
303,0.3174853030717179,0.27478260869565213,0.6651772018466399,0.8333333333333334,0.29517722676356606,0.12971609372728732
304,0.425204018446603,0.3556521739130434,0.7278528250235059,0.7916666666666666,0.22104490428862206,0.101967278838804
305,0.5804312599850758,0.5104347826086956,0.7980340769209842,0.75,0.3546203956286633,0.16257471339606103
306,0.2931361252858989,0.13043478260869562,0.6027104608321214,0.7083333333333334,0.16514938358626688,0.07713269883047087
307,0.396050644448787,0.27478260869565213,0.7202567754512287,0.75,0.2766046106225381,0.1249788712143107
308,0.6913279632233906,0.5530434782608695,0.8479737806434352,0.9166666666666666,0.3458133110604153,0.15506982804688732
309,0.4282661104748623,0.3356521739130434,0.5787962174566156,0.7916666666666666,0.17166601582826269,0.07563546249107296
310,0.520403269799851,0.39391304347826084,0.7601116954402446,0.7916666666666666,0.24012721789520566,0.10999961148717557
311,0.599058875475156,0.3852173913043478,0.7971150226931653,0.7916666666666666,0.30493584935666695,0.13709644812298824
312,0.4873573066629131,0.3678260869565217,0.6092831873077172,0.5833333333333334,0.18715333924988528,0.08415042802281347
313,0.48983334257561717,0.32521739130434785,0.7238511071928578,0.6666666666666666,0.28513825918157515,0.12805639699028717
314,0.6025033410046567,0.4869565217391304,0.7892581457330292,0.75,0.29218873586678107,0.13183112736283623
315,0.3514257526390573,0.3478260869565217,0.6138309179616079,0.75,0.18524913217767844,0.08390591253913217
316,0.7395029992013253,0.5843478260869565,0.8695715983037646,0.8333333333333334,0.3224956994584091,0.14989237637680375
317,0.7540667857738694,0.6852173913043478,0.8745227863224833,0.8333333333333334,0.3196288287816317,0.14815671853474502
318,0.4136358672592908,0.2121739130434782,0.7015934014445467,0.7083333333333334,0.2131197714755172,0.0981361529386353
319,0.5371448221724854,0.39999999999999997,0.7850298661223393,0.8333333333333334,0.26028810383385015,0.11955737647320426
320,0.32883615822761514,0.17565217391304347,0.548913484205877,0.625,0.15576940834697908,0.0696836204377389
321,0.48381953496500857,0.3904347826086956,0.5604336683689126,0.5833333333333334,0.1554940461602097,0.06887577429455358
322,0.2841496954166074,0.23478260869565212,0.5726152041176168,0.6666666666666666,0.2003511068574189,0.08933420927512169
323,-0.012036687585175919,0.07826086956521738,0.5831354793718966,0.875,0.19448168216593756,0.08876889860663327
324,0.6359356965112964,0.44,0.726624232459496,0.625,0.19828050470043737,0.09041718093401364
325,-0.010856447741661529,-0.033913043478260865,0.4913967455542239,0.75,0.1898208064546365,0.08561282855185429
326,0.5557990896849405,0.46086956521739125,0.7396563529631984,0.8333333333333334,0.2758728058494821,0.12347857494062897
327,0.5296766502299977,0.3817391304347826,0.5701168118852222,0.625,0.1383856351450427,0.06488064930387047
328,0.6005837641639026,0.43043478260869555,0.8012639187838793,0.875,0.3669137716068181,0.16978430753932883
329,0.32146985185485977,0.21391304347826084,0.694829160403399,0.7916666666666666,0.26548637203887415,0.12195012746572097
330,0.05056369041741608,-0.033913043478260865,0.5571381453732116,0.7916666666666666,0.13990911308984288,0.06553760918692914
331,0.38896416101421183,0.308695652173913,0.686272699720807,0.7083333333333334,0.2129575319202538,0.09723782245896298
332,0.5166800073610652,0.42956521739130427,0.7605458162372835,0.75,0.20797863353274432,0.09388896085837097
333,0.31508556984568237,0.24434782608695652,0.6864580786481941,0.8333333333333334,0.20846962076710052,0.09465262184421586
334,0.6230119214410701,0.4860869565217391,0.8176746644948654,0.8333333333333334,0.28335793925626496,0.13114724787170826
335,0.6310998295172557,0.40869565217391296,0.8177999391976866,0.8333333333333334,0.3758841811496557,0.17043598986187306
336,0.6053998180937306,0.4652173913043478,0.7334087455240639,0.5833333333333334,0.24902672436834816,0.11313810323051003
337,0.614170417575453,0.5295652173913042,0.7709767075900067,0.7083333333333334,0.1709824928021811,0.07960338771441669
338,0.2944798891793816,0.16086956521739126,0.6774504871489424,0.7916666666666666,0.2592496990708073,0.11569570639002609
339,0.5285684937150782,0.3956521739130434,0.7170034073642094,0.7916666666666666,0.15672433034046135,0.07411041328389728
340,0.42556458662098307,0.3660869565217391,0.7462171715822009,0.875,0.30294093202106476,0.1364054449768294
341,0.5263082270165513,0.4165217391304347,0.759798116743798,0.7083333333333334,0.3151607501845733,0.14320694113603027
342,0.6209659848934787,0.47130434782608693,0.8076702963450517,0.75,0.3155565847001131,0.14275377500352587
343,0.6705099169710067,0.5321739130434783,0.5785164216783402,0.5416666666666666,0.16110954772896646,0.07335977728169077
344,0.35408505527207784,0.28086956521739126,0.5356550201269776,0.5416666666666666,0.1678907663518495,0.07556020759880498
345,0.3520981206549346,0.1869565217391304,0.5861889747390522,0.75,0.22056092949907233,0.09769600959276167
346,0.2660696761800802,0.0826086956521739,0.6610856574847174,0.7916666666666666,0.2466466043768374,0.11337438904751938
347,0.5168966586508406,0.36347826086956525,0.7532430112500044,0.875,0.30562012976897224,0.13763102379754252
348,0.5358978231508009,0.43304347826086953,0.7284310572172563,0.7083333333333334,0.22556520839228514,0.10019069795087122
349,0.4117969108110998,0.32260869565217387,0.684012581553597,0.6666666666666666,0.20176443147635048,0.09284144417595652
350,0.5291638940140105,0.41739130434782606,0.7825551106942534,0.875,0.2982785890073866,0.13775674867645438
351,0.3008450606794576,0.13999999999999999,0.7026316033985375,0.875,0.23222422727282044,0.10618904073916849
352,0.23157415963910333,0.2008695652173913,0.5144175375098432,0.5833333333333334,0.16463577754054778,0.07819761514384897
353,0.5538357149745359,0.38434782608695645,0.7900161981550944,0.8333333333333334,0.3189782637963764,0.14333981408267976
354,0.3463589488905534,0.2026086956521739,0.7156678070416144,0.8333333333333334,0.3277231814931006,0.15110274362625667
355,0.4290659354138876,0.30347826086956514,0.657146373454717,0.625,0.22982743989649446,0.10116636317240439
356,0.5057933500430689,0.3660869565217391,0.7723912935635316,0.7916666666666666,0.3184891447817302,0.14728695053681662
357,0.5170356129027862,0.4408695652173913,0.663914641870177,0.625,0.22465520634293187,0.10050675983358703
358,0.5988778368424708,0.4234782608695652,0.7684131866043346,0.7083333333333334,0.20126275666114765,0.09134941979890636
359,0.4979670873231171,0.3913043478260869,0.7526744490339126,0.7083333333333334,0.27835852406554246,0.12750840599023866
360,0.42334476968322365,0.32260869565217387,0.7334468032838862,0.7916666666666666,0.2556968317263908,0.11526400611877001
361,0.47021040897812394,0.34521739130434775,0.7464277174569073,0.75,0.34501624582064067,0.15396778288141727
362,0.7293203146827504,0.5321739130434783,0.8374402721934252,0.7083333333333334,0.29401972613405125,0.13761530638382719
363,0.35057890547588155,0.14869565217391303,0.46681560414733925,0.6666666666666666,0.14845854779205528,0.06434545767337926
364,0.04796070911988503,0.05826086956521739,0.21527307838955215,0.6666666666666666,0.054564027939828126,0.02150219085799542
365,0.3999518575274632,0.32695652173913037,0.7190490607820567,0.7916666666666666,0.3102618309282585,0.13453519525934482
366,0.20299436373693375,0.1034782608695652,0.012837428927597296,0.5833333333333334,0.0026660751855610535,-0.0009174089178525475
367,0.54489671837726,0.37478260869565216,0.7384998880855862,0.7083333333333334,0.23713826030175134,0.10860451430708534
368,0.4009928327881264,0.33652173913043476,0.6054592480837957,0.6666666666666666,0.17807482955779105,0.0769894179297904
369,0.34070877202762007,0.308695652173913,0.686019822575518,0.7916666666666666,0.2944412790867313,0.13356248991500735
370,0.4542831429577573,0.2869565217391304,0.74981411045519,0.8333333333333334,0.34449371288035896,0.15567308777981795
371,0.38506223790512734,0.2860869565217391,0.7087175919646191,0.75,0.31405556540744384,0.13902466677528907
372,0.6849977515437222,0.497391304347826,0.4389487170671823,0.4583333333333333,0.11827901605763996,0.054265971586693384
373,0.08241346511867881,0.03739130434782608,0.6523972735271458,0.875,0.2949813770963281,0.13342827200922983
374,0.5324332572870772,0.4321739130434783,0.7818952459008113,0.75,0.3289533136444714,0.1481816471192231
375,0.5226855576857015,0.4208695652173913,0.6603880465855249,0.75,0.1927679987964385,0.09051355704781983
376,0.4923128275446061,0.3565217391304348,0.7649666621488698,0.7916666666666666,0.3206139133808147,0.1457155716039619
377,0.4272358459414898,0.32521739130434785,0.7324375270409301,0.75,0.29909577159098233,0.1346253089823126
378,0.57425094751167,0.4017391304347826,0.79938258099837,0.875,0.4173860575415768,0.18475398470858895
379,0.40182896630577625,0.29913043478260865,0.7143202938963317,0.75,0.2614683241485542,0.11999691757809992
380,0.4323665502279431,0.36,0.6379312165027671,0.7083333333333334,0.18811571054021495,0.08140169477257686
381,0.5477153291256796,0.39739130434782605,0.6572481557277146,0.5833333333333334,0.19672836246145906,0.09052074686890475
382,0.49041931692890517,0.4460869565217391,0.6099119069106412,0.625,0.11104532165306687,0.05213836168261361
383,0.27979611266486365,0.13739130434782607,0.6296288234107257,0.75,0.19690324263827969,0.08852691052040536
384,0.718317323613936,0.5460869565217391,0.8578047495840893,0.875,0.3858626442202278,0.16879800242666482
385,0.6312330651275657,0.5295652173913042,0.8070887952175476,0.875,0.31197843508332807,0.14269083101552188
386,0.3769333209153103,0.25652173913043474,0.4644810527351545,0.5416666666666666,0.11961553548600608,0.05304128686947567
387,0.7195503559643852,0.5469565217391303,0.8418046069552172,0.7916666666666666,0.3183003663462974,0.14295314382134106
388,0.5755695760292145,0.5043478260869565,0.62267270130284,0.7083333333333334,0.10996579258836132,0.052009376208735664
389,0.33520378823293673,0.23913043478260865,0.6464348284398477,0.7083333333333334,0.24079414829660498,0.10649428752036584
390,0.5298385844904472,0.3678260869565217,0.7517527918348215,0.75,0.2503398752577488,0.11288968206079092
391,0.34501526739391597,0.25652173913043474,0.5666003513691561,0.5,0.13764912918962016,0.06254377595204305
392,0.34878264281942695,0.29739130434782607,0.7069546357866652,0.7916666666666666,0.26626118167239177,0.12458415420677206
393,0.0141743274989935,-0.04608695652173912,0.3207455914488815,0.5,0.09133376843139877,0.039987883373429255
394,0.5716702616880309,0.5008695652173912,0.7955506241942423,0.875,0.4001314277835379,0.1772065117025511
395,0.4772723461502335,0.3008695652173913,0.7540574351474318,0.75,0.3108914593887399,0.1415559974629548
396,0.42055465963876915,0.3182608695652174,0.7163140173618683,0.75,0.27393804859847937,0.12493981050874865
397,0.3415792381500312,0.21304347826086956,0.6640286362079839,0.75,0.30707222673601287,0.13529461285748154
398,0.6646208956080776,0.497391304347826,0.8363514352235243,0.875,0.4087695638979711,0.17883480673085614
399,0.4356752760532761,0.3808695652173913,0.6861980731265573,0.7083333333333334,0.21014069878723304,0.09446667601808341
400,0.6320418551341631,0.5365217391304348,0.8061217741499002,0.7083333333333334,0.3050144248053883,0.13623044743255486
401,0.4972381251706153,0.3913043478260869,0.6956464591916549,0.6666666666666666,0.20239401078869632,0.09303038819571884
402,0.7602384597981082,0.5495652173913043,0.768639045988756,0.5833333333333334,0.19327998993455103,0.09087665569984103
403,0.5095235891601877,0.37478260869565216,0.5502472485721862,0.5833333333333334,0.13057631150159094,0.062137030682474885
404,0.36681990001245146,0.2295652173913043,0.7135251791588838,0.8333333333333334,0.32613340243392264,0.148494372367887
405,0.5679808642299158,0.32956521739130434,0.7963554903576409,0.875,0.3289477715068064,0.15257631654573592
406,0.404791652393351,0.36,0.5980589364662445,0.6666666666666666,0.1634106675264907,0.07212961405524983
407,0.4485475764455653,0.39391304347826084,0.7425971843951116,0.8333333333333334,0.3129924833168893,0.14109381710048158
408,0.39929488285078374,0.308695652173913,0.4427796599282582,0.5416666666666666,0.13224954053852853,0.05867689225505294
409,0.4503232661086055,0.29130434782608694,0.7498174143521839,0.8333333333333334,0.3171325175813147,0.14020367487432495
410,0.16910025648957694,0.15130434782608695,0.4874332962377882,0.6666666666666666,0.15859466960580304,0.07032568966562933
411,0.5123285495065143,0.3208695652173913,0.7417078697788779,0.7916666666666666,0.2823278112394503,0.12457968531583144
412,0.5506870445457546,0.39739130434782605,0.5309012950425683,0.5,0.15358534617911918,0.07063915233942107
413,0.34975036205106647,0.21913043478260866,0.5373150947311888,0.6666666666666666,0.11796759779666105,0.05217552758746363
414,0.41024081916814714,0.2452173913043478,0.6941075398413704,0.7916666666666666,0.20747589679227077,0.09291500358259602
415,0.254741326748409,0.2008695652173913,0.6782524971323242,0.8333333333333334,0.23241585836315656,0.1065511154612008
416,0.4088355071305012,0.3060869565217391,0.4632519004337767,0.625,0.10400956155160293,0.04549762852347
417,0.38246167590629276,0.25478260869565217,0.7176501513828277,0.7916666666666666,0.2552801158041104,0.11791865168710385
418,0.41453269209416277,0.3478260869565217,0.5189342987666583,0.5,0.1264110284349173,0.058231244094243025
419,0.22457958577036283,0.21565217391304345,0.514015696788776,0.7083333333333334,0.16197985595256434,0.06981352751856956
420,0.4051348564211442,0.3278260869565217,0.711323117949647,0.7916666666666666,0.28501987119352395,0.12668179781074224
421,0.5774981174048113,0.48260869565217385,0.7939663906987648,0.7916666666666666,0.40374429402047457,0.1815568314958758
422,0.35480071266084146,0.2791304347826086,0.7268507955505538,0.875,0.3401958189723677,0.15199945516801963
423,0.5226994801928214,0.4052173913043478,0.6876414079103973,0.7083333333333334,0.17023334151766387,0.08009274705691652
424,0.5263195573053144,0.4434782608695652,0.7756712635986284,0.9166666666666666,0.3328567567218035,0.1529060428991821
425,0.3632872862922183,0.2843478260869565,0.6249706173491055,0.625,0.1977012815148188,0.09041202855539746
426,-0.09315114954811762,-0.1252173913043478,0.5169456676002236,0.7916666666666666,0.24284761886422557,0.11472965705174656
427,0.3971076659731402,0.3356521739130434,0.6233628536852316,0.7083333333333334,0.14983544899208326,0.07366247207281794
428,0.5106345086263759,0.3321739130434782,0.7274869309617106,0.6666666666666666,0.28677982684277975,0.12930873952479868
429,0.41780066193027493,0.23565217391304347,0.7130397974439264,0.7083333333333334,0.2749610083614404,0.12384305223219608
430,0.3133191660009917,0.24434782608695652,0.5918439873499016,0.625,0.23589630038043116,0.10371852332900268
431,0.4498472393556726,0.35130434782608694,0.7425675570170671,0.8333333333333334,0.34246836592606256,0.1544305640239093
432,0.5145030585413429,0.3347826086956522,0.7735570554599803,0.8333333333333334,0.30635238646746554,0.1404981575971312
433,0.6174228209005065,0.4765217391304347,0.7378530928680027,0.7083333333333334,0.20827631569565738,0.09709747442873479
434,0.5376907081473639,0.43043478260869555,0.785550055505962,0.875,0.39209544159233245,0.17461107049966737
435,0.4374156577578436,0.2504347826086956,0.7303723234771883,0.7916666666666666,0.27294149489293223,0.12399333974269436
436,0.6946420873894013,0.5147826086956522,0.8385672345371707,0.8333333333333334,0.3121433436970792,0.14384450041933758
437,0.13942600922660686,0.034782608695652174,0.588344890262962,0.75,0.2168270264578509,0.0961012097212073
438,0.44110081061754214,0.2826086956521739,0.5312380350775668,0.625,0.14601340814619818,0.0648687511729422
439,0.44351876901479187,0.33304347826086955,0.7495992975464473,0.875,0.40241285260110565,0.18271879194355542
440,0.38099835967153634,0.308695652173913,0.7063383995001671,0.8333333333333334,0.28155502693019635,0.12615789055579296
441,0.5202287664993824,0.3930434782608695,0.7602327201881016,0.7916666666666666,0.24710748747461644,0.11165194732462834
442,0.572166545533985,0.44695652173913036,0.5868059726093533,0.5833333333333334,0.16912835286233724,0.07599692000338522
443,0.5198265600684808,0.40347826086956523,0.4319602694076802,0.5833333333333334,0.07785228708319113,0.03623666606465501
444,0.37699396796766294,0.33652173913043476,0.699173166114228,0.7083333333333334,0.2688547007002009,0.123494521171574
445,0.5117048717509157,0.3991304347826086,0.7659104333047179,0.875,0.2749239313575569,0.12490325103540795
446,0.38960839972786454,0.27999999999999997,0.690531822408349,0.7916666666666666,0.28987321663652266,0.12665718280264776
447,0.1731758568229953,0.23478260869565212,0.568876026535024,0.8333333333333334,0.17618718589160745,0.080249922786695
448,0.5881804808269983,0.5060869565217391,0.6802208001328577,0.625,0.13328771709671025,0.06281252694347708
449,0.6845399211867533,0.5313043478260869,0.7518894738800038,0.6666666666666666,0.20801792418661166,0.09600378930314797
450,0.39384146927357944,0.40434782608695646,0.735807745280583,0.8333333333333334,0.24065123709294445,0.1107007762494308
451,0.4953694426269693,0.40086956521739125,0.6731423729015547,0.5833333333333334,0.19491377470327315,0.0863129572236946
452,0.4378195870221451,0.26347826086956516,0.6621922723681225,0.625,0.1948636935488583,0.0875895749848251
453,0.6464028853388761,0.4504347826086956,0.8273481792641543,0.875,0.42297021907986093,0.18662597379124746
454,0.4433644343614526,0.35826086956521735,0.6450299556242285,0.5416666666666666,0.22767566323654842,0.10437450845738286
455,0.6832203292099748,0.528695652173913,0.7478883132498886,0.6666666666666666,0.2221151550760539,0.10308506989151783
456,0.3629107356963307,0.3060869565217391,0.7154612052491186,0.8333333333333334,0.302293554231727,0.13722174487952749
457,0.39624390326879877,0.34434782608695647,0.642292817500487,0.875,0.2507620106616232,0.11173831361577748
458,0.29335377869342594,0.2078260869565217,0.665746714856538,0.7916666666666666,0.2923240450362002,0.132528155685707
459,0.588015318632165,0.46956521739130425,0.7983457703670251,0.75,0.27408061136781725,0.12772256598549156
460,0.523716532911563,0.38608695652173913,0.7134534817887401,0.7916666666666666,0.1602200404651225,0.07319720028267938
461,0.23608365021307953,0.09391304347826085,0.665182891734214,0.8333333333333334,0.2639273835618808,0.117534810358494
462,0.4189085234277632,0.33652173913043476,0.7439597275874763,0.875,0.34053854636857395,0.1525677462970211
463,0.5248414103397145,0.2895652173913043,0.7810894535305172,0.875,0.414545235803246,0.18187630069813857
464,0.3713244385160988,0.2860869565217391,0.72040800834344,0.875,0.36046457864545284,0.15765043340468513
465,0.37535849066896254,0.19913043478260867,0.7057983273872661,0.8333333333333334,0.26926619883619507,0.1186921830965894
466,0.6413082648865651,0.5408695652173913,0.8246850877650763,0.8333333333333334,0.3095137595906469,0.14002383418258968
467,0.4621299350831677,0.27478260869565213,0.6457822882371068,0.7083333333333334,0.1546877218900998,0.07299497001610507
468,0.39951065519376494,0.25217391304347825,0.42427178479514377,0.4583333333333333,0.12402217145566853,0.05255633774740306
469,0.33437066538392923,0.19913043478260867,0.47669261562695053,0.625,0.10507398032033516,0.047224601897998285
470,0.2174177570177908,0.029565217391304344,0.5058521849405574,0.625,0.10972863397303337,0.05124272660845225
471,0.22775867445486847,0.11739130434782606,0.6300794985325492,0.75,0.19352677391652337,0.08746922625324328
472,0.4668056857662474,0.2895652173913043,0.41116790174451284,0.5416666666666666,0.11428998986817937,0.04991739156296431
473,0.45354386838931443,0.40347826086956523,0.747978840733484,0.75,0.2543795751805792,0.12001581500404414
474,0.7982663516138955,0.7278260869565217,0.78639728251518,0.5833333333333334,0.25783018796107204,0.11732472566572909
475,0.42836217588782866,0.3,0.6791461719777774,0.7083333333333334,0.20328001142776525,0.09290519564136013
476,0.6773761060908736,0.5147826086956522,0.8287067432174059,0.75,0.2889716657048537,0.13191974752148516
477,0.653786047963827,0.4626086956521739,0.8192517741980916,0.75,0.25928945159311884,0.12190336963709904
478,0.5061080219880133,0.3173913043478261,0.6432976213043318,0.6666666666666666,0.1611074386774563,0.07309340903574305
479,0.18978101798365635,0.09739130434782609,0.3123119332903081,0.5833333333333334,0.08854689440581004,0.037538562184916996
480,0.2624931523969173,0.1243478260869565,0.6317160872642698,0.75,0.18343356411525044,0.08483525113486924
481,0.5052866071471644,0.4252173913043478,0.7317556258673152,0.75,0.29066829204671657,0.13222973901098278
482,0.2528426930190675,0.23478260869565212,0.5043160523717359,0.6666666666666666,0.105036452512454,0.050548737156972674
483,0.24514932662187977,0.19913043478260867,0.5498974820677207,0.75,0.2002836472351161,0.08768304502581657
484,0.3070744137328265,0.15478260869565216,0.6598200046380762,0.7083333333333334,0.2787156232963221,0.12880415361122416
485,0.5358691330607104,0.44869565217391305,0.7075863834243314,0.7083333333333334,0.16848140289246066,0.07812137883599822
486,0.25597979843240193,0.15652173913043477,0.6156142459526222,0.75,0.23489977732930908,0.1018262557788658
487,0.3159865038534774,0.22434782608695653,0.6433121638088877,0.8333333333333334,0.2080162124204602,0.09327843969298245
488,0.49507383095521273,0.47043478260869553,0.7540061571788544,0.7916666666666666,0.251532167497772,0.1118853196174057
489,0.4584367655152881,0.4104347826086956,0.7507050788498779,0.7916666666666666,0.24603362208838456,0.11152958547214366
490,0.4841484935291249,0.4252173913043478,0.40322264623653936,0.5833333333333334,0.1020496608140915,0.04746720298276621
491,0.20218850568352842,0.17652173913043476,0.5067581928020632,0.7083333333333334,0.13192524673051495,0.059943992890493514
492,0.7045806522473743,0.5652173913043478,0.8392143801519041,0.875,0.327642838657116,0.14529728951139959
493,0.47725408945587944,0.3052173913043478,0.7616292489094856,0.875,0.3658953047616821,0.16762312453278116
494,0.5212092532726053,0.3356521739130434,0.7765571391338709,0.8333333333333334,0.33039446641329,0.15061076072397975
495,0.43168588601188873,0.37913043478260866,0.7352072015798284,0.875,0.25051293842524236,0.1137087793668717
496,0.404643394782329,0.3095652173913043,0.6891157166472667,0.7083333333333334,0.2813094867974499,0.12891332436190223
497,0.35649841972678675,0.1452173913043478,0.231768843732796,0.5,0.04498589524747938,0.019270123835992366
498,0.3446151124789078,0.35826086956521735,0.20870727490360563,0.5,0.04316167517932579,0.01933034037226057
499,0.5947503650949639,0.5330434782608695,0.7991772580040034,0.7916666666666666,0.36701022700336117,0.16649457133526274
500,0.5111023433732428,0.41130434782608694,0.7649436554098351,0.9166666666666666,0.3976455530678192,0.17468755846224193
501,0.6356470643690393,0.4495652173913043,0.7999412312561973,0.7083333333333334,0.2772540279906361,0.12709733197516415
502,0.42944884344449064,0.34521739130434775,0.7086915439867398,0.7916666666666666,0.30120362416169383,0.1313353204555368
503,0.18772108479374702,0.13478260869565215,0.6058479186874273,0.7083333333333334,0.2242639292624849,0.10319790371066612
504,0.2105446378353748,0.06,0.23867669140132064,0.4583333333333333,0.06949463063722651,0.02858123457995504
505,0.12891349243486955,0.09043478260869564,0.6263380385716606,0.7916666666666666,0.30906064056265853,0.14039580887452743
506,0.11118815454290958,0.041739130434782605,0.39837317525648663,0.5833333333333334,0.09105396933574611,0.038723370101172105
507,0.29803536484106596,0.12782608695652173,0.6467486294739805,0.75,0.2864864656320429,0.12552696575245126
508,0.5978205554656291,0.40695652173913033,0.7695756052896555,0.7083333333333334,0.2655104552704516,0.12308769223265992
509,0.4636526717840779,0.3313043478260869,0.7377968613404763,0.8333333333333334,0.29457901213713095,0.1374553126427863
510,0.41894174534796247,0.21739130434782608,0.5951718379291839,0.6666666666666666,0.1394424319176941,0.06421058889023763
511,0.41236118227020674,0.16347826086956518,0.7316192925748326,0.75,0.1807151774173508,0.0838368911897525
512,0.2896020132722671,0.21304347826086956,0.6979140785333662,0.8333333333333334,0.4285256567180841,0.19221395829761193
513,0.7367403315003115,0.537391304347826,0.67505610289445,0.625,0.1787157890668262,0.08218441301467459
514,0.5037485233542756,0.3460869565217391,0.7346841537539543,0.75,0.3078964367281481,0.13611179481110922
515,0.2714013054491577,0.21913043478260866,0.6703333723538605,0.7916666666666666,0.2707374106272437,0.12394552960735096
516,0.44410289632271505,0.38434782608695645,0.5960180810390597,0.625,0.17579031312134707,0.08277620487502473
517,0.6946205996138104,0.5391304347826086,0.8157218491357575,0.6666666666666666,0.22743472339306478,0.10407292771921994
518,0.44512642840125816,0.21130434782608692,0.724391362273906,0.7916666666666666,0.2383347303564416,0.10794451648047376
519,0.49788449311845173,0.3878260869565217,0.7641763548607561,0.75,0.19980730072891126,0.0941528439553533
520,0.3345392622400748,0.23478260869565212,0.5524972069435165,0.7083333333333334,0.1644399662384203,0.07286207619743068
521,0.48279237302058337,0.3904347826086956,0.6071986876417609,0.6666666666666666,0.13559178020020873,0.06135074250352227
522,0.44655144117478685,0.37739130434782603,0.6580108510647269,0.5416666666666666,0.25139399160450326,0.11234394583869121
523,0.31998846465566266,0.23478260869565212,0.6525359578958021,0.7083333333333334,0.27912016873093326,0.1328505758284046
524,0.38637713924150147,0.3052173913043478,0.5776738412737393,0.75,0.1642629881073457,0.0743331674604235
525,0.407668452960302,0.3173913043478261,0.4318519418502083,0.5,0.11476570608025234,0.053033082673743764
526,0.6609222144468417,0.5199999999999999,0.7674104527431155,0.75,0.1572406157835585,0.0733458062253404
527,0.36896188158267945,0.29565217391304344,0.496433105510272,0.625,0.08144885405020075,0.03795160899267197
528,0.6220378872669614,0.5208695652173913,0.8044631766548872,0.875,0.29800967426013975,0.1335547868219184
529,0.5192149474321753,0.4243478260869564,0.6519385571282125,0.6666666666666666,0.1579688527196265,0.0767712052204447
530,0.5789107405113446,0.4139130434782608,0.6991524939174889,0.75,0.18365300282543903,0.0867201548471511
531,0.5010260402100147,0.5208695652173913,0.7690004893676639,0.7916666666666666,0.36172276309969814,0.15956222048500113
532,0.7195176929741063,0.5669565217391304,0.8598225817387447,0.8333333333333334,0.33885207899494474,0.1564083600775307
533,0.5703498102581246,0.47130434782608693,0.7771668934118844,0.6666666666666666,0.34102029274799106,0.15497029289612924
534,0.4624925848361913,0.33826086956521734,0.7573118783714952,0.8333333333333334,0.3757671089160365,0.16747647852297015
535,0.42832074281507576,0.32434782608695645,0.5794668053552101,0.625,0.1488593070803417,0.06821222349455065
536,0.5143608731427316,0.37043478260869556,0.7370983699915703,0.75,0.2720720777180561,0.12153211493705605
537,0.4364176292391526,0.31478260869565217,0.5504406650825923,0.625,0.16585227956643497,0.07629743551769241
538,0.2722272681042044,0.2217391304347826,0.5509947425970287,0.7083333333333334,0.18240744920170693,0.07985225637197294
539,0.4283698393568387,0.36260869565217385,0.6675331808763731,0.625,0.25827056135844884,0.11559169860825508
540,0.45899006330718267,0.3817391304347826,0.7395689254178337,0.75,0.2832566393843915,0.1311808844968566
541,0.27736699660817704,0.14956521739130432,0.6109222159615297,0.6666666666666666,0.27604571497632974,0.12171086541015759
542,0.4128772518354542,0.3182608695652174,0.6701127249730758,0.7083333333333334,0.20293962566161072,0.09068186597391487
543,0.39804620138304536,0.3095652173913043,0.665209683125057,0.7083333333333334,0.21030880646123434,0.09516392896406244
544,0.46298651998624984,0.41826086956521735,0.7410984421824043,0.7916666666666666,0.2799889632856079,0.12584355667955352
545,0.40819485839514336,0.27652173913043476,0.6495412195409298,0.75,0.16191426270200593,0.07348260953335131
546,0.5902015750392138,0.46956521739130425,0.8055606023089446,0.8333333333333334,0.2763343744631666,0.1276739220847438
547,0.5244936459067535,0.31565217391304345,0.7807245886473734,0.875,0.2835609759875498,0.13112442373107144
548,0.3517487661224775,0.20608695652173914,0.5936041891907758,0.625,0.18221278693343151,0.08246463366904687
549,0.4708098401755083,0.3660869565217391,0.7111084856975369,0.6666666666666666,0.25066229812657576,0.114988904572341
550,0.45515612400675,0.3347826086956522,0.7359444634787253,0.75,0.24871653631732746,0.11275250399187975
551,0.3149174361341584,0.2226086956521739,0.41293428185433156,0.5,0.09874965506680783,0.04400274904257469
552,0.4794457191991224,0.3530434782608695,0.7351131141254,0.6666666666666666,0.2705561268150406,0.12335188674777976
553,0.584551652050251,0.3739130434782608,0.7236609632541763,0.5416666666666666,0.21166171423503896,0.09801939853551822
554,0.48969024499807884,0.3991304347826086,0.6606760038054972,0.75,0.20899714961353183,0.09269890678692604
555,0.4210323101162321,0.35913043478260864,0.7152254315741882,0.8333333333333334,0.316253082612997,0.13874463706247073
556,0.6143263722945596,0.4547826086956522,0.7854816464008813,0.75,0.2483266057852439,0.11156231126723778
557,0.323049765339366,0.18956521739130433,0.7107311191110027,0.875,0.38814878925632706,0.17340261558568243
558,0.3726361373773762,0.308695652173913,0.5689826382441469,0.7083333333333334,0.19781716451523648,0.08660272014491852
559,0.3616045104742737,0.19913043478260867,0.6100680996092922,0.7083333333333334,0.17424466354355161,0.08112467151829023
560,0.39668659578778853,0.35130434782608694,0.7355476279236363,0.875,0.3144430566507679,0.14359271226029632
561,0.6357169536362497,0.4547826086956522,0.8232228906641551,0.875,0.4057210214590479,0.1835194797494689
562,0.6632725111730604,0.548695652173913,0.7817847772947415,0.6666666666666666,0.16228124902406357,0.07723565342077572
563,0.33518448349298013,0.328695652173913,0.7092160175962271,0.8333333333333334,0.22874158928095406,0.1049439559843335
564,0.46048540544915256,0.36347826086956525,0.5139608827101961,0.5,0.15035661409385048,0.06764902666903788
565,0.6734767151916508,0.5156521739130434,0.821180406784818,0.7916666666666666,0.32632731809706267,0.1470096613753463
566,0.5490350970213668,0.368695652173913,0.779369760449906,0.7916666666666666,0.2826755852110618,0.129154182914108
567,0.485002181499263,0.48086956521739127,0.7437860781099792,0.7916666666666666,0.3309171440679264,0.14757841892957932
568,0.3914474305316935,0.2652173913043478,0.5662919887709781,0.6666666666666666,0.16394689735280824,0.07306089503808831
569,0.6628740486773286,0.5452173913043478,0.8330424903190049,0.8333333333333334,0.21422123073422164,0.10120992684226576
570,0.5821104028548099,0.4513043478260869,0.7833857094433351,0.7916666666666666,0.3393911371569725,0.15283248686330878
571,0.5342333383546298,0.4782608695652173,0.7461441796133822,0.6666666666666666,0.3028635606180027,0.1350779316729087
572,0.6296697241719422,0.4982608695652173,0.6007443923458894,0.5833333333333334,0.1468248467925067,0.06458057000257382
573,0.39769790592704296,0.2713043478260869,0.6056424434077701,0.5833333333333334,0.17442261815749532,0.07712645336504124
574,0.2721498438017944,0.13304347826086957,0.4934407687434382,0.625,0.09251726992335767,0.04268857690081231
575,0.28256511048637006,0.2495652173913043,0.6991054491663359,0.875,0.4827414107685376,0.2133466533640841
576,0.481063169450513,0.28521739130434776,0.7640139598417975,0.875,0.41561900269796315,0.1843369589911114
577,-0.007421011681051262,0.02695652173913043,0.6129011400792942,0.8333333333333334,0.2096359098804508,0.09527809708577926
578,0.6348466385145142,0.3834782608695652,0.8226691601702061,0.8333333333333334,0.23052393233440038,0.10640501358340179
579,0.4885975455516613,0.4269565217391304,0.6142733997673955,0.5416666666666666,0.21667842057966716,0.09763342671905881
580,0.6316312562767192,0.5304347826086956,0.8116331184462761,0.875,0.2746293590009573,0.1264679955473026
581,0.5943909816068973,0.5173913043478261,0.7801798146364847,0.6666666666666666,0.22208754089066265,0.10254665721459123
582,0.3317940547044437,0.2965217391304348,0.5868882694679122,0.625,0.17767806207408168,0.07879178108726219
583,0.34976444095562786,0.36695652173913035,0.7069860798600428,0.8333333333333334,0.3785129374978068,0.16911670076792898
584,0.3295539848247516,0.2826086956521739,0.6509128110646367,0.7083333333333334,0.1793995225524098,0.08154732260436257
585,0.6109617466176374,0.42,0.6329732773829796,0.5,0.16767062410614347,0.07567233145329733
586,0.2688825036894684,0.18869565217391301,0.6104927389969885,0.7083333333333334,0.18794443288593227,0.08527284355338238
587,0.47272157293909217,0.29913043478260865,0.2962726210358936,0.4583333333333333,0.08558493243160455,0.03727228685887337
588,0.4821839368574611,0.4104347826086956,0.7648344385977133,0.8333333333333334,0.3372931374604957,0.1546077158317871
589,0.3850161491647003,0.3,0.709831432313506,0.75,0.30921629981140075,0.13969187280967588
590,0.441366861335064,0.19391304347826085,0.47274396869600105,0.625,0.09778185481380994,0.044548795051860546
591,0.29702263439731,0.10173913043478258,0.6750503232341877,0.8333333333333334,0.33426228007506187,0.14541783716587064
592,-0.01943426752124698,-0.09391304347826085,0.44482036168808514,0.75,0.14815152663913123,0.06711983823985315
593,0.6274383927271565,0.48869565217391303,0.8024983206062859,0.75,0.30423584901778933,0.13651287434271311
594,0.6016474048404986,0.40695652173913033,0.794981490894574,0.7083333333333334,0.37838226713897805,0.17142073446585934
595,0.275274297885043,0.1034782608695652,0.6615969358794194,0.8333333333333334,0.29844060011012785,0.13247423704282626
596,0.6223629319297701,0.4269565217391304,0.7313963346646598,0.6666666666666666,0.22341813745536285,0.10076015783139061
597,0.570199942124045,0.3539130434782608,0.7808340202833206,0.8333333333333334,0.32505117864746086,0.14673377037853863
598,0.4913784176750956,0.3991304347826086,0.6751420956868422,0.7083333333333334,0.20398590446199785,0.09307492678123111
599,0.5783935113472163,0.5278260869565217,0.8009044310014554,0.7916666666666666,0.38265353820338505,0.17473727458211988
600,0.4658876064153922,0.41478260869565214,0.5562834050796435,0.7083333333333334,0.16544373029113446,0.07444408775620304
601,0.4029197870463537,0.29130434782608694,0.546389162634052,0.625,0.09689857893163441,0.04479148888353385
602,0.3491426827140535,0.328695652173913,0.6287507517408744,0.75,0.17017679242455772,0.07873825884424365
603,0.543085916280585,0.3139130434782608,0.7673127345569223,0.75,0.3239843192613971,0.14639533279226613
604,0.40239555891497775,0.2782608695652174,0.6991017379196772,0.75,0.31274706094936877,0.1392255389038646
605,0.6512554852605436,0.537391304347826,0.8159007354918484,0.7083333333333334,0.2749327497286766,0.12877616327532057
606,0.5662603280914789,0.4547826086956522,0.7957587120507112,0.875,0.28431166021919063,0.12973444014803148
607,0.4539133286550228,0.2843478260869565,0.7231300485394457,0.7083333333333334,0.23657035373028007,0.10732885274147683
608,0.386089719271483,0.3017391304347826,0.7029946757261026,0.7916666666666666,0.27055730568030345,0.12187068954104957
609,0.6586555229276647,0.5347826086956522,0.7970550211657328,0.7083333333333334,0.25099876609628335,0.11358613535283564
610,0.3223884031592038,0.288695652173913,0.16520572519187401,0.5416666666666666,0.0372145087173961,0.016237299993646943
611,0.3611024304650163,0.15826086956521737,0.42976053364743816,0.5833333333333334,0.1271845643334076,0.05399473985944127
612,0.4091677898519832,0.3356521739130434,0.7346514727556318,0.8333333333333334,0.288861772818482,0.1288160451065077
613,0.6613314021873413,0.5365217391304348,0.8017498178857659,0.75,0.28993908269654556,0.13054377675523332
614,0.431057937743924,0.29130434782608694,0.6477334551487025,0.625,0.20377285372696347,0.09137615955336346
615,0.6464991616487171,0.5130434782608695,0.8287157144022659,0.875,0.3473094062249326,0.15917324974572303
616,0.2542346331138485,0.0634782608695652,0.6623732677399304,0.8333333333333334,0.408301912066943,0.1785310997097095
617,0.5262398913955271,0.4782608695652173,0.6412753621299888,0.5833333333333334,0.2099822280259166,0.09301259633766955
618,0.3560023582871794,0.3834782608695652,0.6844999183083146,0.8333333333333334,0.24035065921357596,0.10746714307155707
619,0.23936462371125566,0.1973913043478261,0.5842735641620556,0.625,0.18495331841848534,0.0847345686631685
620,0.35045406024825937,0.23478260869565212,0.6410270777136157,0.7083333333333334,0.1869595538150293,0.08364529226641582
621,0.22690026046542122,0.15130434782608695,0.5188519371323301,0.625,0.1376512313259317,0.06290849066946916
622,0.3921220847720637,0.4121739130434783,0.7112576953019392,0.875,0.30098372965472525,0.13430903357713006
623,0.5725600162097108,0.5043478260869565,0.6677415202211648,0.5833333333333334,0.17931743031913167,0.08323373789075637
624,0.5821777066186486,0.4504347826086956,0.7544627906919692,0.6666666666666666,0.22249888434062376,0.1015821862404156
625,0.3095905792313951,0.19043478260869565,0.579095047370819,0.5833333333333334,0.13149670060861932,0.06181570844263122
626,0.5043141809314262,0.3608695652173913,0.7451540010204085,0.8333333333333334,0.1443085341855073,0.0679674985914413
627,0.43780466337514246,0.32,0.7085035193824089,0.7916666666666666,0.21771898743413012,0.09766727802094473
628,0.7764866176714622,0.697391304347826,0.8670845180892313,0.7916666666666666,0.3107317956673622,0.1437313848995285
629,0.348947891359342,0.13565217391304346,0.6804693961688705,0.8333333333333334,0.22396916555793575,0.09906441465139104
630,0.3134141696863007,0.24434782608695652,0.7007762728544092,0.8333333333333334,0.2858739933629347,0.12762273018294695
631,0.6617693942254402,0.5860869565217391,0.8291112647310734,0.875,0.3024141609632043,0.1380415609147232
632,0.6198400922255954,0.5034782608695652,0.7869296024130147,0.7083333333333334,0.2560117377363011,0.11794414439577608
633,0.3447651743056139,0.29565217391304344,0.6541240694094123,0.7916666666666666,0.19258508455047196,0.08805955986646924
634,0.6831932618569968,0.5199999999999999,0.8413831435043216,0.8333333333333334,0.30179151325562503,0.1391779391171945
635,0.529204545558727,0.4104347826086956,0.7591447686893121,0.75,0.31220818449899723,0.13900079308804716
636,0.5367059431392895,0.5269565217391303,0.7825440843998469,0.9166666666666666,0.38183166739072494,0.16566059323026527
637,0.4182772212173697,0.31913043478260866,0.6649230071059855,0.6666666666666666,0.2049650558151431,0.09460048435802788
638,0.17921675790802322,0.03652173913043478,0.26374615477440266,0.4583333333333333,0.06403883455994532,0.02808500664594844
639,0.41257033061314874,0.3756521739130434,0.7207493347681659,0.7916666666666666,0.31757237937486354,0.14585051497094037
640,0.06341013148835434,-0.03565217391304347,0.521100946808277,0.75,0.2826468245689813,0.12329856117449921
641,0.5050917950919763,0.3304347826086956,0.7238430636195113,0.7083333333333334,0.2814330360460151,0.12769800875565507
642,0.3724824035671941,0.2982608695652174,0.5949562504041354,0.625,0.20092085959552713,0.08903743148498727
643,0.5883923511231027,0.42869565217391303,0.7287751913978847,0.5833333333333334,0.2554322024192593,0.11364499541334577
644,0.5514280340186536,0.41739130434782606,0.7527374850274061,0.75,0.27718302566759706,0.12438856490527035
645,0.3151226103685296,0.21478260869565213,0.6061926366912105,0.75,0.202719857441809,0.09040530792293291
646,0.4241502811842854,0.3660869565217391,0.7098726772879548,0.7916666666666666,0.1860377080788242,0.08805619828630262
647,0.47357364200378155,0.3808695652173913,0.6345891676451546,0.5833333333333334,0.24346388069146993,0.10673648758788525
648,0.5174563966651531,0.35739130434782607,0.7711657303869645,0.8333333333333334,0.4031493119762444,0.18155053109859012
649,0.5483044228171234,0.42173913043478256,0.7798279601745756,0.8333333333333334,0.29082598927361786,0.1288998460235308
650,0.2768426080140366,0.16260869565217392,0.6309965905900606,0.875,0.24264970292671706,0.10815595305768695
651,0.22062831056292873,0.2295652173913043,0.5644627075372408,0.7083333333333334,0.2157402917058523,0.09460331550639081
652,0.6468070046118591,0.528695652173913,0.8197627082088035,0.875,0.3983230264444048,0.1782697150749108
653,0.73242458546755,0.6382608695652173,0.8575197180334683,0.875,0.3556362880108459,0.16075741710246844
654,0.3657685550162961,0.27999999999999997,0.7231971183012418,0.875,0.2855869231337515,0.12897262792297
655,0.5253448572839725,0.468695652173913,0.7619995746378471,0.8333333333333334,0.2918745070441226,0.1328133368416718
656,0.4406068203321339,0.42260869565217385,0.7524129099484892,0.875,0.4291127974760398,0.1991101219841456
657,0.3621522634580342,0.25913043478260867,0.7032585317716057,0.875,0.2529929026106072,0.11725204496216167
658,0.48849179673978366,0.3217391304347825,0.7630414947571009,0.8333333333333334,0.3282367848751139,0.14663870551819813
659,0.4401642700159792,0.37304347826086953,0.6261397937710661,0.5416666666666666,0.22419447907919804,0.09983625083449016
660,0.5511872689822582,0.3643478260869565,0.7859854014553921,0.7916666666666666,0.33279336535711723,0.14857732060840204
661,0.34712510624216,0.2939130434782608,0.6714367756440608,0.75,0.21883781007898184,0.1001159027425588
662,0.6992818969295094,0.6782608695652173,0.8485607005902436,0.8333333333333334,0.3134499151174328,0.14040481878437325
663,0.6211829928065771,0.5260869565217391,0.754209844063862,0.625,0.2317711952920447,0.10445359015032031
664,0.21102727286154507,0.14260869565217388,0.5356234370100423,0.6666666666666666,0.2032441749429276,0.08742351478794043
665,0.3207683684116013,0.2226086956521739,0.6646456238960562,0.7083333333333334,0.20959298931733308,0.09604095160657784
666,0.4196171610243729,0.3904347826086956,0.6549285843589097,0.625,0.22877304540321577,0.10521409766939581
667,0.5903254118305973,0.49999999999999994,0.6455383823844687,0.5416666666666666,0.2009777568350021,0.08978820528732157
668,0.4957606109256285,0.3913043478260869,0.7419767921216062,0.7916666666666666,0.26689218621016514,0.12209702523172976
669,0.5483454136793813,0.46434782608695646,0.7882500868058614,0.875,0.3097915239597109,0.13851770043109926
670,0.6944949906073786,0.5278260869565217,0.8434429433968365,0.875,0.30582060594359134,0.14417725925688984
671,0.579184826722607,0.38260869565217387,0.7691993931185579,0.75,0.22510120067082262,0.10458599956477498
672,0.45718370338148473,0.3417391304347826,0.7477507629398407,0.8333333333333334,0.38278831541336467,0.17127842071735766
673,0.599752467114171,0.44695652173913036,0.8087420491406561,0.7916666666666666,0.3026731477749426,0.13904374191042562
674,0.3557711826702793,0.2617391304347826,0.7056487373219988,0.7916666666666666,0.2565661791490813,0.11961475697654922
675,0.6261534995138903,0.4669565217391304,0.8200165281676005,0.875,0.3880406270583868,0.18021760071637852
676,0.5935275151617947,0.42956521739130427,0.7282629130426903,0.625,0.20110905264949847,0.0915922406490956
677,0.38294942286606853,0.29913043478260865,0.6570293292238355,0.7083333333333334,0.21690900435313504,0.0950143548420535
678,0.5015441820055292,0.328695652173913,0.7455342337555801,0.75,0.22326632757058673,0.10292858339887476
679,0.4467890885496102,0.2895652173913043,0.5129883977952434,0.5833333333333334,0.16407486735980634,0.070584474597977
680,0.30303646447768434,0.26086956521739124,0.7049570359966402,0.875,0.314319756090085,0.14117708445393354
681,0.5301291021516605,0.43304347826086953,0.7436720457675143,0.7916666666666666,0.25801427900362284,0.11476662555490393
682,0.14797889073912301,0.07391304347826086,0.4839614973303225,0.625,0.14116393760583268,0.06251413235514434
683,0.407608104828459,0.3313043478260869,0.6581070386703292,0.6666666666666666,0.2748654230243889,0.12168001651492584
684,0.2163357495863827,0.1678260869565217,0.6161796653248635,0.7083333333333334,0.20259267867706393,0.09241803858331007
685,0.4917245415729035,0.4026086956521739,0.6560022193180666,0.5416666666666666,0.18259282037118005,0.08157708791824761
686,0.48815780636972317,0.28782608695652173,0.7441039356017618,0.8333333333333334,0.22559152639886274,0.10419718934526062
687,0.20040922828433558,0.1252173913043478,0.4360679097467735,0.4583333333333333,0.11116597438977185,0.047394019013367567
688,0.6488742098838833,0.48086956521739127,0.8296624474548893,0.7916666666666666,0.37004557826782003,0.16539891446711857
689,0.1525679650655866,0.046956521739130425,0.6052754090495746,0.7916666666666666,0.1916829709315947,0.0863475819653625
690,0.47575921661177056,0.37478260869565216,0.6809652383686239,0.7083333333333334,0.17793951664462898,0.08197421777791263
691,0.5180339867187492,0.3947826086956522,0.6827981271272476,0.7083333333333334,0.21723430922471387,0.09978623213481103
692,0.39514908424169126,0.25130434782608696,0.6700131402502081,0.75,0.22124527523991144,0.10105387000424998
693,0.27351886995268654,0.3356521739130434,0.6115244789099821,0.75,0.22416182003865187,0.10227049255759409
694,0.24123494203559231,0.18521739130434778,0.6096975834070045,0.7916666666666666,0.2180961120587139,0.09929652318519623
695,0.6659387381336688,0.4591304347826086,0.787579152580866,0.7916666666666666,0.21904692760010047,0.10128622176059396
696,0.5065448816345304,0.4478260869565217,0.7484719145993385,0.6666666666666666,0.26379173100202524,0.12441742145017959
697,0.44454845878327715,0.3391304347826086,0.7508027681753368,0.875,0.33467735161369544,0.14598671477571665
698,0.37402114011704407,0.2791304347826086,0.7081774493639602,0.7916666666666666,0.298156328444431,0.13466555301988362
699,0.6333336015471841,0.49217391304347824,0.7868704683007622,0.7083333333333334,0.23282523740650274,0.10601492127057761
700,0.5618047413126677,0.29478260869565215,0.7935675203803578,0.875,0.3467938646534415,0.15553560005214379
701,0.5524031331658822,0.4382608695652173,0.7699143094368359,0.875,0.2912396893465387,0.1321108530876306
702,0.5748155026183908,0.5208695652173913,0.6041592225479541,0.5833333333333334,0.18481069808368109,0.08207569073621619
703,0.11720775466348943,0.05565217391304347,0.6184731295546837,0.7916666666666666,0.23042642614727013,0.10462460632789043
704,0.6032380350964075,0.4904347826086956,0.7942093148232008,0.7916666666666666,0.24381862201188945,0.11201628684179324
705,0.6012142786030112,0.477391304347826,0.7354939563784781,0.5833333333333334,0.24362678808711027,0.10820389996110269
706,0.44406935178094237,0.46173913043478254,0.7257766475430457,0.7916666666666666,0.27388091335771575,0.1234019368471143
707,0.5742294824742474,0.4408695652173913,0.7728325174360161,0.7916666666666666,0.3397764022002723,0.150086377818592
708,0.6237761172584009,0.528695652173913,0.7332923632010114,0.75,0.1889816693527733,0.08750270433325551
709,0.28635669920942036,0.23826086956521736,0.7017343751283182,0.8333333333333334,0.3262962515176996,0.14709171933458182
710,0.5760870050964698,0.41739130434782606,0.6191424045821633,0.4583333333333333,0.22612793758811833,0.09995947196793446
711,0.3391326021583198,0.2478260869565217,0.5884463774800617,0.6666666666666666,0.18265420467621984,0.08305080799945816
712,0.43824874356318333,0.40869565217391296,0.742362188327817,0.7916666666666666,0.20980176548503338,0.09764927550659551
713,0.4152491273670639,0.3460869565217391,0.7242006883641726,0.75,0.21194086009683072,0.1001554481205905
714,0.6405647965052699,0.5217391304347825,0.7745575331997394,0.7916666666666666,0.23100318801199338,0.11052292214924718
715,0.5893595946216671,0.39826086956521733,0.7872629810210816,0.7916666666666666,0.307502358310508,0.13833349870812117
716,0.5781737097995907,0.4243478260869564,0.7729139693102539,0.6666666666666666,0.3159831917701747,0.14453591800122628
717,0.4863443261711181,0.3652173913043478,0.7423138212116591,0.7083333333333334,0.24040319362292867,0.1077692225336762
718,0.5830893028691697,0.3321739130434782,0.664776642062428,0.625,0.18677303226230924,0.08719083189989245
719,0.44268065148988756,0.42869565217391303,0.7349393096673309,0.7916666666666666,0.21855967665136264,0.09983546522397885
720,0.6977534681156035,0.5139130434782608,0.8463922637170493,0.875,0.2859936784067196,0.1298802683542675
721,0.2414878113661296,0.11130434782608695,0.5570604315842455,0.625,0.1999087286893121,0.09131761565126902
722,0.39015285671653516,0.27304347826086955,0.6097705412172856,0.625,0.1997751535271237,0.08697678633547681
723,0.38249164315713813,0.3069565217391304,0.7178957485637437,0.8333333333333334,0.29526450876054716,0.13213669386615928
724,0.4817020123641072,0.40869565217391296,0.7497201178776566,0.7916666666666666,0.35560082036442153,0.15543824451957566
725,0.666139238240617,0.48869565217391303,0.825542835215932,0.75,0.29627065409690456,0.13772087850417228
726,0.5010704300113902,0.34956521739130436,0.7722475240511991,0.8333333333333334,0.24249310146141945,0.11128413303421475
727,0.3106411067048695,0.21565217391304345,0.6748198702595789,0.8333333333333334,0.29582650883824835,0.12887032677240956
728,0.5795737163541996,0.4782608695652173,0.7866937160364755,0.7916666666666666,0.3567783578254928,0.15757762402564968
729,0.4331988823995715,0.22608695652173913,0.6978730401218027,0.75,0.25909191480501625,0.11806328421358257
730,0.34267653583504615,0.2643478260869565,0.6103814653874209,0.5833333333333334,0.1757296976974978,0.08174835749827847
731,0.32376873394536804,0.19826086956521738,0.6484184423514324,0.7083333333333334,0.24581732378450583,0.10832638419259817
732,0.4031008885608408,0.32434782608695645,0.6775551831602692,0.6666666666666666,0.22193741855034504,0.1019389194452624
733,0.2917771497854258,0.19391304347826085,0.6601925885972366,0.7083333333333334,0.25840648264670457,0.11480771104343294
734,0.4866709984696518,0.4060869565217391,0.7622340235976164,0.7916666666666666,0.35756185976747423,0.16039533575979323
735,0.49055356968372515,0.3930434782608695,0.726328375385186,0.75,0.2593980393937877,0.11573836855201933
736,0.6165255063914097,0.4904347826086956,0.797332093097373,0.7916666666666666,0.27514812573606484,0.1225368651598329
737,0.4856464248503242,0.4478260869565217,0.6623805930535579,0.625,0.2132710692229601,0.09469095045630978
738,0.3219028652175991,0.2678260869565217,0.6784053019125837,0.7916666666666666,0.1874725272503721,0.08992128963799131
739,0.7097887037286426,0.5460869565217391,0.5649269559528677,0.5,0.17110942992270434,0.07515228016389648
740,0.46710071414920223,0.328695652173913,0.7525169798357255,0.8333333333333334,0.3624430038666481,0.16095872955723514
741,0.5588639667019718,0.47130434782608693,0.7701324269256056,0.7916666666666666,0.18576309224489498,0.08485962951863092
742,0.47551548310639563,0.3,0.5703865529668788,0.6666666666666666,0.15485046170109135,0.06884957026419775
743,0.36330276849353105,0.25130434782608696,0.6770812988972041,0.7083333333333334,0.2731565997989487,0.12280147069915438
744,0.7496061771471645,0.5243478260869565,0.862700404113303,0.9166666666666666,0.4141373753448789,0.18884981793662065
745,0.7197656562045389,0.5634782608695652,0.8541856192225727,0.7916666666666666,0.28764051930796497,0.13108446992397388
746,0.425229667168931,0.3304347826086956,0.7057187840764662,0.75,0.25933063068425105,0.11692761822686165
747,0.27852210170310326,0.2026086956521739,0.6256417847697627,0.7083333333333334,0.22543579440555503,0.10188070125228421
748,0.577257689410885,0.46782608695652167,0.8004033677481127,0.875,0.41138642302049305,0.18497348573403405
749,0.5050651456817998,0.3304347826086956,0.6377093975071002,0.6666666666666666,0.18201445843929176,0.08068257961669625
750,0.4374461304616252,0.3304347826086956,0.6673449315424976,0.7916666666666666,0.20110047357908312,0.09125746889772907
751,0.5208118424073465,0.37739130434782603,0.5382225946028979,0.5416666666666666,0.12625267660395606,0.060177652916069246
752,0.48782232956268,0.23130434782608694,0.7292947778039074,0.6666666666666666,0.309331632747349,0.13879697617342768
753,0.4680527688543291,0.3521739130434782,0.7281885404584281,0.8333333333333334,0.1844781505951014,0.08621292357645886
754,0.24442731964803932,0.15739130434782608,0.5452096314668936,0.625,0.16132674835490607,0.0736251723637011
755,0.5653417193373159,0.32521739130434785,0.790372034159169,0.8333333333333334,0.2980066465292322,0.13712117175598443
756,0.5618676215257966,0.4434782608695652,0.7750127116883175,0.7916666666666666,0.23149923844594852,0.10612819613016045
757,0.5078701852555138,0.44,0.7511409838970701,0.75,0.3016573338888157,0.13700026816599725
758,0.46478318663144574,0.3026086956521739,0.6711968663974357,0.625,0.1859633688411558,0.08349906619913172
759,0.46848455838276515,0.37739130434782603,0.7358379512035608,0.8333333333333334,0.387518954447051,0.1720061497600908
760,0.3787751379113313,0.2539130434782608,0.7104384974192488,0.75,0.2573253744552953,0.11756468414143155
761,0.3021349784368137,0.1782608695652174,0.5683466348062157,0.7083333333333334,0.12857474165334482,0.058429308156764156
762,0.5432127138570216,0.4339130434782608,0.5738569614349981,0.5833333333333334,0.13687558719661733,0.06450769035275708
763,0.4938571166704193,0.2826086956521739,0.7295356763382013,0.7916666666666666,0.24487191790651122,0.11258661919349015
764,0.34285379979600067,0.2713043478260869,0.7048489092297158,0.8333333333333334,0.2553078297120401,0.11472431235101725
765,0.3795342809164223,0.15652173913043477,0.6550441241709153,0.6666666666666666,0.17162399342060677,0.07836776317354409
766,0.42808311970283547,0.31304347826086953,0.6899047075720854,0.8333333333333334,0.21055881001387144,0.098343930434012
767,0.46139479182314286,0.3739130434782608,0.6431664770250327,0.625,0.2517680450577033,0.11617169419820399
768,0.4119224996450451,0.26347826086956516,0.6966894368013368,0.6666666666666666,0.2175715311735835,0.09911930748096144
769,0.5915299003966724,0.46347826086956523,0.7157700885204423,0.7916666666666666,0.22611283270768853,0.10317395735496028
770,0.6702131729992513,0.5921739130434782,0.8366771181892951,0.8333333333333334,0.36614327092114607,0.1661032637975916
771,0.5178417674792317,0.3530434782608695,0.7783858786429405,0.875,0.33750826065389444,0.15168187392985655
772,0.24230624150893654,0.17130434782608694,0.6432090493024755,0.75,0.28138441097280936,0.1284031101207485
773,0.5113634570493815,0.41913043478260864,0.7759150612807342,0.8333333333333334,0.48962697874727934,0.21877923401842886
774,0.367979978159934,0.25652173913043474,0.5308711302638891,0.6666666666666666,0.11919294198209017,0.05672266164407781
775,0.5052872556968112,0.34521739130434775,0.7707333582644053,0.8333333333333334,0.395267367419741,0.17539555252711142
776,0.4301984177786479,0.3921739130434782,0.7074700556710756,0.75,0.2204310508130996,0.10221264896891188
777,0.7914670233100618,0.5947826086956521,0.6457908070051518,0.5833333333333334,0.11495008433481771,0.0538622886631149
778,0.5618681030709447,0.5095652173913043,0.7933881746764848,0.7916666666666666,0.2917865938748046,0.13090276647200394
779,0.36706885670595996,0.28521739130434776,0.695202694401425,0.7916666666666666,0.2764332444611744,0.12398204787015003
780,0.5018898384640986,0.3739130434782608,0.679003716360964,0.625,0.2618659333214332,0.11428722060573523
781,0.2336882264876205,0.1026086956521739,0.5618557546808186,0.5416666666666666,0.20167886236554874,0.08955551630238727
782,0.4980351009788174,0.35913043478260864,0.6204955553768884,0.625,0.1674291143554986,0.07677239485835377
783,0.480279511626349,0.26608695652173914,0.35790763757124316,0.4166666666666667,0.08845734815805216,0.039563700129664425
784,0.34671673696211236,0.2773913043478261,0.7026872095980302,0.875,0.2615211863192691,0.12384554364022632
785,0.5821886118176354,0.3947826086956522,0.8025501420937398,0.875,0.360597631584343,0.1668780928742799
786,0.6008958559981448,0.3930434782608695,0.7399918099202673,0.75,0.20162064543797462,0.09014326729289265
787,0.5647850249373164,0.4860869565217391,0.7792469404913512,0.75,0.22212132684316027,0.10319327588038472
788,0.5040123335872013,0.508695652173913,0.7483327407951902,0.7916666666666666,0.295516657467607,0.13062832379549616
789,0.40443079542651206,0.23130434782608694,0.7349520844079492,0.875,0.33944366822948446,0.15035772724356392
790,0.5898474814248296,0.47043478260869553,0.7799224232472339,0.7083333333333334,0.3130582809774232,0.1400897206680379
791,0.6600681531384909,0.5173913043478261,0.7386757475052477,0.6666666666666666,0.19013800537708114,0.08750358645322255
792,0.35756911615526976,0.29913043478260865,0.6798614552713266,0.7083333333333334,0.2460338187136455,0.10910898095164531
793,0.43244189265122235,0.29304347826086957,0.701993421707315,0.7083333333333334,0.23308816141753344,0.10410843502422323
794,0.43101081652828027,0.2782608695652174,0.6823376992263245,0.7083333333333334,0.23263375475361034,0.10426628767056893
795,0.45702652337458566,0.3852173913043478,0.6909550676605184,0.625,0.19417530009036638,0.0877977131874338
796,0.6669101792456382,0.45739130434782604,0.6673119459151087,0.6666666666666666,0.1674493806629978,0.08103463461261004
797,0.47056433875832376,0.4060869565217391,0.6702714109405405,0.7083333333333334,0.18020610135951498,0.08184450205142499
798,0.5381078761942386,0.5243478260869565,0.7597647751761347,0.8333333333333334,0.2478954232333406,0.11358681243655781
799,0.4014760318988579,0.32521739130434785,0.7371142908057694,0.875,0.35841821812930164,0.16289657395913118
800,0.428987036786527,0.3695652173913043,0.7487345306804191,0.875,0.34076361189644083,0.15591443335217325
801,0.5066756401783734,0.46347826086956523,0.7726641867310492,0.9166666666666666,0.3380328162050255,0.15488547813270218
802,0.40280646972257306,0.25652173913043474,0.738449815211255,0.875,0.2976486720550297,0.13564866260001157
803,0.5220877397107103,0.3913043478260869,0.7064031990110793,0.7083333333333334,0.20499796595025996,0.09584633132277891
804,0.4243974416721109,0.3321739130434782,0.7344733785541098,0.75,0.30907098455720805,0.14120332820114467
805,0.8022907307065401,0.6565217391304347,0.8987295038068133,0.875,0.31805698126532567,0.14383544812082738
806,0.5476838771577175,0.38869565217391305,0.7826583755554448,0.7916666666666666,0.2663562994541232,0.12151182051227194
807,0.5076526390225894,0.4052173913043478,0.7692584961127976,0.75,0.24804983439378803,0.1128347623464728
808,0.2634725509048081,0.07304347826086956,0.6520685895014561,0.7916666666666666,0.18962089859398862,0.08834936875551291
809,0.1546543812297137,-0.042608695652173914,0.03209657687466059,0.4583333333333333,0.006483972366883388,0.0012131452255615181
810,0.45011506870235796,0.25217391304347825,0.7515486793269296,0.875,0.40302092583106475,0.17935407664253886
811,0.7676625700549424,0.6226086956521739,0.8725090820497732,0.8333333333333334,0.28391359367893193,0.12854119823980523
812,0.4542967125997951,0.2773913043478261,0.7341235924630055,0.875,0.36481869271793865,0.16097568082840738
813,0.27386412929364157,0.19391304347826085,0.5236223535627584,0.625,0.13534366553936794,0.05927270296568786
814,0.5053923513832064,0.32956521739130434,0.6310461414988014,0.5833333333333334,0.21964985102725956,0.09692414186718847
815,0.5693525991158186,0.3347826086956522,0.7589811306359958,0.6666666666666666,0.2900636745887706,0.1320444394751178
816,0.5889842757978653,0.4721739130434783,0.8003777889421787,0.875,0.42208957981324813,0.19107265378182794
817,0.3875751637127992,0.35913043478260864,0.357858827872458,0.5,0.07994335425952738,0.03644551185103803
818,0.7155157139281387,0.5121739130434783,0.8077371790938512,0.75,0.19596981065751884,0.09031961532486306
819,0.39193551442089614,0.24434782608695652,0.31513774527500094,0.4583333333333333,0.05894250471041191,0.025709388366359286
820,0.48013614631108215,0.47130434782608693,0.7293922857181737,0.75,0.20817677917709732,0.09638846416656789
821,0.3310841708818467,0.23826086956521736,0.695280164093001,0.875,0.3212600068231191,0.14162610919552845
822,0.2877957758822608,0.24608695652173912,0.37518250467838327,0.5,0.10785638147289917,0.04590803902037969
823,0.5660558413984872,0.41478260869565214,0.727917360838264,0.5833333333333334,0.3008420469074384,0.13482755519412246
824,0.4589095205202395,0.3,0.7283791741388985,0.75,0.3772001911161482,0.1656545955748922
825,0.3703581613009719,0.23652173913043475,0.6664713981457359,0.7083333333333334,0.16410849530324217,0.07871180883458817
826,0.5241099167098484,0.37304347826086953,0.6048514951010753,0.5833333333333334,0.18388417727673678,0.0830906033162866
827,0.5743580996947875,0.46782608695652167,0.7937548616844211,0.7916666666666666,0.2775612344212013,0.1254234774287301
828,0.519674011429128,0.4478260869565217,0.7678597768710821,0.7083333333333334,0.2765249407372541,0.12833760891175025
829,0.43909353623534025,0.3304347826086956,0.5458388602318708,0.5,0.18019227552651093,0.07805869855091101
830,0.5396792627988513,0.3478260869565217,0.7043652491302257,0.625,0.2642067195362666,0.11825026799798405
831,0.5747511630543026,0.4721739130434783,0.3049331805836822,0.5,0.06121204479630795,0.02694353059298841
832,0.6956768979795309,0.4860869565217391,0.7333108676717176,0.5833333333333334,0.21536102362136006,0.09873920124684088
833,0.21662860041863516,0.2217391304347826,0.2933235143594069,0.5416666666666666,0.07212597667328148,0.030943683716939497
834,0.2520744543240976,0.17043478260869566,0.4431087907364922,0.625,0.11084910733041307,0.05072584885748876
835,0.5463280077297545,0.40782608695652167,0.7260824590417312,0.7916666666666666,0.2955379406569626,0.13161285588940028
836,0.527777719284708,0.34521739130434775,0.7754575177589684,0.8333333333333334,0.29517939174685215,0.1345669847207812
837,0.46898114195627816,0.35913043478260864,0.4766798646692379,0.5416666666666666,0.1507950654029147,0.06526849658556651
838,0.23128843162868482,0.1843478260869565,0.4656698426441427,0.7083333333333334,0.10922159386651212,0.0490154286509642
839,0.5147277929244529,0.3956521739130434,0.7542775287995287,0.7916666666666666,0.24745396518922058,0.11174558042946232
840,0.6290114010424479,0.4539130434782608,0.791257680807675,0.75,0.2557236926737825,0.11407570349311587
841,0.6014301267213619,0.4956521739130434,0.8101197742869453,0.7916666666666666,0.3118282995003855,0.1420737860367112
842,0.6097177554510422,0.5382608695652172,0.8050130596249699,0.8333333333333334,0.2882152985982908,0.1327939144198969
843,0.5515507474844932,0.548695652173913,0.7643692663916454,0.7083333333333334,0.2570048431336925,0.11736047214498115
844,0.6306855940109037,0.4956521739130434,0.8033586831800482,0.75,0.2374812541524357,0.11042608797686533
845,0.8186092731052521,0.7017391304347826,0.764246522665397,0.7083333333333334,0.28056290449804056,0.13066581913212094
846,0.7037858446561762,0.5730434782608694,0.7964264051632411,0.75,0.2170789804846982,0.10104924788484075
847,0.4579331103786325,0.3121739130434782,0.7222876127268145,0.8333333333333334,0.3047245978903235,0.1363383536470745
848,0.21906688585465994,0.14608695652173911,0.6733438739888434,0.8333333333333334,0.2044729167609407,0.09329708794333119
849,0.49529212394114136,0.33739130434782605,0.7608758443645104,0.7916666666666666,0.299603848218919,0.13840094755669263
850,0.35379875947871,0.2582608695652174,0.6737467845377623,0.75,0.17725033513327604,0.08300798116977279
851,0.4328645830335435,0.3356521739130434,0.7056088534833128,0.75,0.2926618627121017,0.129387268008413
852,0.5185718468266807,0.4452173913043478,0.7051675802120694,0.6666666666666666,0.24262335973590246,0.1095221071800217
853,0.7056666438533933,0.5843478260869565,0.780572906196541,0.625,0.2561035179193076,0.11347238655905173
854,0.4823067846844454,0.31652173913043474,0.729586827895406,0.75,0.3127342241595585,0.1417955613390217
855,0.639090597347391,0.5895652173913043,0.8061204802174337,0.75,0.30537393373372296,0.14064069835224172
856,0.609451777906767,0.4782608695652173,0.812133197361194,0.875,0.3554825067783027,0.15876155904791803
857,0.5800575092527599,0.39826086956521733,0.7121415866631934,0.7916666666666666,0.15917602717932358,0.0761419819826872
858,0.6494212689738342,0.45999999999999996,0.8254593971379229,0.8333333333333334,0.31993874238723924,0.14784714503980365
859,0.44863340080704495,0.37478260869565216,0.7112002725391423,0.6666666666666666,0.24532798939786304,0.11131638900147868
860,0.5738747139511049,0.40434782608695646,0.7993841739497534,0.8333333333333334,0.31777975939074193,0.14197651192099056
861,0.09463526436836942,0.08173913043478259,0.48366147029656104,0.6666666666666666,0.1306862653303347,0.05941901681692464
862,0.31011074527641647,0.27652173913043476,0.6295557878938577,0.75,0.23086299924851209,0.10331777257451501
863,0.4825591304297002,0.35130434782608694,0.7445520056887448,0.7916666666666666,0.3163624469404596,0.1425103626930063
864,0.5203010150067067,0.3660869565217391,0.42409818563125384,0.5416666666666666,0.11829701108184995,0.05311905099619157
865,0.33538768520003887,0.24608695652173912,0.716630589561951,0.7916666666666666,0.28435116559343754,0.13042932011440628
866,0.454896368546751,0.33826086956521734,0.7343132103997372,0.875,0.30659982583659984,0.1389389898045777
867,0.44896899369158044,0.4356521739130434,0.7108832159404909,0.6666666666666666,0.21599840505830067,0.0975126950862623
868,0.5630952614559129,0.40956521739130425,0.7332964293606714,0.7083333333333334,0.18712588976157218,0.08513251788775533
869,0.435731896163819,0.28782608695652173,0.6914404058613991,0.6666666666666666,0.21317711802492342,0.0951461357197969
870,0.37557870694594864,0.268695652173913,0.6829106828737531,0.7083333333333334,0.22553752574543937,0.10368522347829887
871,0.547587346999218,0.2834782608695652,0.7218530669384927,0.7083333333333334,0.2830691944547673,0.12888636972321504
872,0.27462419619104367,0.22434782608695653,0.7071418373669173,0.875,0.25342260564076086,0.1157948389481367
873,0.5349313451105968,0.4556521739130434,0.7363749925931447,0.6666666666666666,0.21025034227799777,0.09710489598704948
874,0.31549441572540743,0.2217391304347826,0.6478643919864633,0.7916666666666666,0.15506712010612014,0.07251571189401042
875,0.4945234260525481,0.31304347826086953,0.7337670624197403,0.75,0.28637233654702426,0.12671962066607015
876,0.6610844714801589,0.6373913043478261,0.802613735356574,0.75,0.32427274616069635,0.1460313179514349
877,0.4522540719225137,0.3530434782608695,0.7509724451440056,0.8333333333333334,0.3792938558327614,0.16605635573307345
878,0.6467791830671196,0.44869565217391305,0.7517691638442134,0.6666666666666666,0.32030177304019625,0.1427789645673544
879,0.48544404818156073,0.33999999999999997,0.7145067669263202,0.8333333333333334,0.2403873072901168,0.10572863129737815
880,0.6209225094684675,0.4982608695652173,0.7208085191103679,0.5833333333333334,0.20680301964791886,0.09891270052838809
881,0.3422692982745552,0.29739130434782607,0.6599858094510143,0.8333333333333334,0.25786172150564873,0.11455549457695262
882,0.575764498111406,0.4243478260869564,0.6877819807058159,0.625,0.18958405511839485,0.0868198029045974
883,0.44911919254769517,0.33304347826086955,0.6869189493638087,0.6666666666666666,0.19156319969009816,0.08731540922826102
884,0.5989887285088877,0.5147826086956522,0.7489557761607996,0.75,0.21284683566726098,0.09966677374236217
885,0.5474500330603919,0.42,0.4134109567776162,0.5416666666666666,0.10974623705034882,0.048742121003565717
886,0.507442309877853,0.38,0.7469261008975241,0.7916666666666666,0.22931654841132448,0.10401761904850267
887,0.5736380646756443,0.48521739130434777,0.7938810033654085,0.75,0.2537337715916919,0.12005260677820906
888,0.39793978473171193,0.2626086956521739,0.6974620636973606,0.875,0.32320264293868795,0.14321366456620216
889,0.6502044932360886,0.46086956521739125,0.8238151661018032,0.875,0.328409771857849,0.1472479367243067
890,0.1562614064523507,-0.03130434782608695,0.45130738641211976,0.5833333333333334,0.14309884276687634,0.061408000259161016
891,0.6203563598358047,0.551304347826087,0.8119878018604543,0.7083333333333334,0.3352277894930301,0.15141785846117
892,0.6198732735599266,0.5469565217391303,0.7810774251560305,0.7916666666666666,0.29512890958045485,0.13211669296920597
893,0.6695288463913072,0.5643478260869564,0.8099249917390565,0.875,0.23660221501824064,0.11058810825872799
894,0.547013634729727,0.39391304347826084,0.6537612253441123,0.5833333333333334,0.24584759580291518,0.10711560863982313
895,0.5003921523192109,0.3208695652173913,0.6642324827225251,0.7083333333333334,0.21859726574768246,0.09877605624703928
896,0.6273418961065824,0.5469565217391303,0.8026590475310542,0.875,0.2550828895667728,0.11861873604023639
897,0.6283706069265782,0.40956521739130425,0.7295436820932663,0.6666666666666666,0.25712625326095756,0.11689301128226791
898,0.6278253344179645,0.5008695652173912,0.675448879730505,0.625,0.1883212436777831,0.08679009384559842
899,0.5262963817300125,0.39739130434782605,0.6743902329975932,0.6666666666666666,0.25560277487260297,0.1128227329286679
900,0.4020593941882259,0.19391304347826085,0.6189646239987726,0.7083333333333334,0.2005345693099378,0.09077392622294844
901,0.36150249479715535,0.37739130434782603,0.703779026572012,0.875,0.2608073094618812,0.11863185357161778
902,0.5591213558640616,0.43652173913043474,0.6519765675885675,0.5833333333333334,0.20653437915324555,0.09151332209930352
903,0.42268133200687685,0.2252173913043478,0.6872936562847743,0.7083333333333334,0.21095553302770295,0.09860913815290724
904,0.6014267800242394,0.35739130434782607,0.7454335918405707,0.7083333333333334,0.24831929399670505,0.11339492335467695
905,0.6323398224926938,0.5182608695652173,0.8126715358081217,0.7916666666666666,0.34959597914138885,0.15749903883129873
906,0.5982985415191302,0.4834782608695652,0.8024828868927575,0.7916666666666666,0.37014066724732214,0.16500320610219535
907,0.13867902301658075,0.07652173913043478,0.37348643378534563,0.6666666666666666,0.07895516449362845,0.03383901873310603
908,0.5409257991909645,0.42173913043478256,0.7643715398523254,0.7916666666666666,0.2701817269393028,0.12253751368008736
909,0.6234678112292681,0.4956521739130434,0.7665050201469227,0.7083333333333334,0.2574985140456615,0.11851924320376953
910,0.49930618695715145,0.40086956521739125,0.7329137347875299,0.7083333333333334,0.24325849635207733,0.10984089731151848
911,0.37418769436260324,0.21391304347826084,0.7194732134302991,0.8333333333333334,0.31565569195967175,0.1419798254289315
912,0.6250503505315906,0.508695652173913,0.8183857899071538,0.9166666666666666,0.39398471540583935,0.1741285213623392
913,0.1551409467647804,0.05826086956521739,0.54712165601935,0.7083333333333334,0.1421120538031917,0.06679012806289727
914,0.514784057022961,0.3695652173913043,0.7394594758024425,0.7083333333333334,0.2652122675212323,0.11509844191341381
915,0.5089864164349888,0.3782608695652173,0.7481676984644433,0.8333333333333334,0.32322248048691005,0.1476706887157279
916,0.5168437149249913,0.3313043478260869,0.7052174931121021,0.625,0.20942607482209652,0.09514993259269808
917,0.37746036977873965,0.27999999999999997,0.5241459531410629,0.5833333333333334,0.13950624438479423,0.06388243054898983
918,0.517566012588075,0.37652173913043474,0.6651330739373497,0.5416666666666666,0.2208548198468279,0.0989413345633666
919,0.05100884334331725,-0.005217391304347826,0.5600588257201853,0.8333333333333334,0.21078334252023337,0.09361937585344612
920,0.5730049282775639,0.5269565217391303,0.767258559928163,0.875,0.2354935110600143,0.10728325105018968
921,0.6116494942880966,0.42173913043478256,0.8039922866379596,0.8333333333333334,0.2590876098241848,0.11904128180486973
922,0.4535315616852019,0.36260869565217385,0.6833284291795996,0.6666666666666666,0.18943105025854748,0.08721923371462983
923,0.350176663312116,0.2695652173913043,0.5719974030823864,0.5833333333333334,0.18836011785887172,0.08452463933372371
924,0.4938327467310032,0.24695652173913044,0.5577977320042768,0.5833333333333334,0.12484200600960343,0.058509720733192334
925,0.3443033221956064,0.2434782608695652,0.601443738479011,0.7083333333333334,0.16730576754946266,0.07676564290616245
926,0.27792118142292377,0.20434782608695648,0.592664293244034,0.7083333333333334,0.2228322323976124,0.09890974373344617
927,0.3744012662996371,0.30347826086956514,0.664551548387338,0.7083333333333334,0.21354767809179873,0.09784465521771077
928,0.2949350111836886,0.16,0.5862756626852551,0.6666666666666666,0.17680984380542608,0.08253830162437012
929,0.4594428767263651,0.28782608695652173,0.66687347175335,0.625,0.2010693958155342,0.08986742385442636
930,0.5229692125014327,0.3678260869565217,0.7578464447040308,0.7916666666666666,0.33937311030849376,0.15127331099428104
931,0.46673118837738364,0.4382608695652173,0.7202525985407553,0.75,0.20437108516717717,0.09192427720897965
932,0.4466109077829431,0.2452173913043478,0.7011991201750001,0.625,0.2125151062865432,0.09603604530790177
933,0.29509987117082254,0.19565217391304346,0.7014013967269906,0.7916666666666666,0.3252841701206956,0.14506678638790754
934,-0.07981629505589843,-0.2078260869565217,0.2866396320207649,0.5416666666666666,0.057153529655480415,0.02622480603056921
935,0.442521333337776,0.3347826086956522,0.6762403143582785,0.75,0.19814142518931135,0.09376420387435086
936,0.6251270329720189,0.5504347826086956,0.8187045785939383,0.8333333333333334,0.29685863996822165,0.13560290674088418
937,0.4485566694237736,0.40086956521739125,0.6195649133747918,0.75,0.18608626467230954,0.08277144940062695
938,0.464284955123964,0.4260869565217391,0.7283980743174313,0.75,0.31518464380682315,0.14197787467182632
939,0.3595335155108953,0.15304347826086956,0.6385730693164485,0.6666666666666666,0.18372189964156405,0.08549213710331857
940,0.6915210511830789,0.6339130434782608,0.8392109198553371,0.8333333333333334,0.3567921504630087,0.16257296524917386
941,0.3911472546530101,0.25565217391304346,0.6779345064997659,0.7916666666666666,0.2390382758091827,0.10751264104521585
942,0.2920663967053593,0.20173913043478262,0.6008443886746172,0.625,0.20340928109377346,0.09221989860669542
943,0.6357075888136012,0.5313043478260869,0.7997394904813189,0.7083333333333334,0.32449380567995334,0.14528575913436242
944,0.6332606133825003,0.5226086956521738,0.7744223581105044,0.75,0.2993521354038126,0.13608491768991157
945,0.25231796925274863,0.15304347826086956,0.6145683269775778,0.7083333333333334,0.20433179624482972,0.0939486792019396
946,0.5323663881339229,0.4869565217391304,0.7526976915428722,0.875,0.3129812680797326,0.14035125083959643
947,0.6822200222787579,0.5765217391304347,0.8076909072793634,0.7083333333333334,0.2649807036095164,0.12113923890117491
948,0.3649705736196225,0.29304347826086957,0.6900621119460358,0.7916666666666666,0.254644645860287,0.11353652438158733
949,0.40825086681097594,0.30347826086956514,0.7176678624940465,0.7916666666666666,0.235232569320924,0.10676344859938389
950,0.5621368586149524,0.4721739130434783,0.7130240366031824,0.7083333333333334,0.2218501651686696,0.10065021567022726
951,0.4054482681896113,0.37478260869565216,0.7275342917961691,0.7916666666666666,0.3663757919701575,0.1668332775993462
952,0.3918325369463945,0.2452173913043478,0.606483546187911,0.6666666666666666,0.18971808900062592,0.08593494863020583
953,0.4513179042738469,0.3739130434782608,0.671543323932212,0.6666666666666666,0.2133713054666577,0.09547680126767073
954,0.6534308939585204,0.45652173913043476,0.8136305175339704,0.8333333333333334,0.3038097267893537,0.1349641822887664
955,0.5355281636077445,0.42956521739130427,0.7406325708142542,0.75,0.23464823590185463,0.1059802706192843
956,0.2894346249890175,0.18,0.5659859624009039,0.75,0.16068772460602992,0.07258479371509868
957,0.7108081809261253,0.5530434782608695,0.847460967776516,0.75,0.28965030984451745,0.13209741361615604
958,0.6084757400946631,0.4756521739130434,0.5749865508929279,0.4583333333333333,0.1916809224829776,0.08548121882985013
959,0.5923928607428166,0.47913043478260864,0.8057876723447218,0.8333333333333334,0.34626779104019073,0.1556763453132711
960,0.1363249721427348,0.02260869565217391,0.5598185832267433,0.7083333333333334,0.2625190243919857,0.11602962392476278
961,0.12728439180473441,0.09826086956521737,0.5419424491728485,0.75,0.19850031677964727,0.08888397754045996
962,0.666508467529517,0.4139130434782608,0.836425431880202,0.9166666666666666,0.31235205400874544,0.1424505065899899
963,0.24745720577587393,0.19478260869565217,0.5824327787688283,0.6666666666666666,0.20468781301426536,0.09695550475333266
964,0.752372741120598,0.6730434782608695,0.8718783010170605,0.875,0.3582949398239074,0.15965830588301289
965,0.6470469806915453,0.5252173913043477,0.742995031647927,0.7083333333333334,0.15256603687801285,0.07049380953434507
966,0.5669313806060186,0.5556521739130434,0.7568162289487773,0.7083333333333334,0.2534957725337831,0.11609695011816856
967,0.5939440096341293,0.43478260869565216,0.8039583744309462,0.875,0.28203100478670046,0.12862642273275524
968,0.3417397371148412,0.3095652173913043,0.6570622372642233,0.7916666666666666,0.2334404968400849,0.10478529433417136
969,0.45597859755575426,0.3043478260869565,0.7449676791923607,0.75,0.33711778118037283,0.1574746234894221
970,0.43715260662332456,0.3052173913043478,0.7328576808039902,0.75,0.24924345053477454,0.11467231312588079
971,0.2575354246373257,0.1434782608695652,0.6842252173783012,0.8333333333333334,0.2971394601482992,0.13171482536425047
972,0.26155349442286,0.23826086956521736,0.6039389092596297,0.6666666666666666,0.1750390348334053,0.07874890309722252
973,0.4259837261350362,0.2434782608695652,0.4314554701375939,0.4583333333333333,0.11771721934755938,0.05200952452671797
974,0.30407595645812846,0.268695652173913,0.6369987225284119,0.7083333333333334,0.23349524484185727,0.10812245148965159
975,0.4409014570434375,0.32347826086956516,0.5987219943614821,0.5,0.1959284168288119,0.0868721268242342
976,0.5370381331678464,0.40869565217391296,0.7460904950338472,0.7083333333333334,0.23236942861591497,0.10926678206726237
977,0.39966170471187434,0.38608695652173913,0.7401149277288555,0.875,0.3369118408008649,0.15338041157253632
978,0.3390527521199648,0.2208695652173913,0.7047561560023465,0.8333333333333334,0.24318555265523756,0.10907522361489375
979,0.4809573007480951,0.33652173913043476,0.5663400656281066,0.5416666666666666,0.1988833862160862,0.09163974852619475
980,0.6298349055590237,0.5217391304347825,0.8217205281837049,0.8333333333333334,0.4065907155700758,0.18092451511605492
981,0.375805148932171,0.20869565217391303,0.7002895098084547,0.75,0.249144645898021,0.11422342994696426
982,0.4321482875532078,0.23130434782608694,0.5839071685250162,0.5416666666666666,0.17561289840861125,0.07781144682589303
983,0.6496493635630605,0.44434782608695644,0.787369635137032,0.75,0.1760558907637258,0.08113654667231808
984,0.3701466099127199,0.308695652173913,0.7217429436008077,0.8333333333333334,0.33228715995019986,0.15202358389957296
985,0.4030578844860248,0.3417391304347826,0.7251608777421028,0.8333333333333334,0.29327285270599307,0.13306431045049863
986,0.49345296546259665,0.4339130434782608,0.6375277784283855,0.7083333333333334,0.14541053142838054,0.06561086589668103
987,0.6195705091305835,0.49391304347826087,0.8071592854243784,0.7916666666666666,0.279168952135963,0.12840711532520607
988,0.39887384009491433,0.39999999999999997,0.7352090529183446,0.7916666666666666,0.32620408925005634,0.14791598549398347
989,0.5457887888180221,0.3313043478260869,0.7856166372127658,0.8333333333333334,0.2979253518275078,0.13619585228149314
990,0.23308124020663679,0.1869565217391304,0.5251618207069187,0.5833333333333334,0.18347519721405908,0.0791805095081931
991,0.5699425460719583,0.4860869565217391,0.7292322827691922,0.75,0.29571136428145445,0.13174440899299303
992,0.4242343410190167,0.21304347826086956,0.5656390354296553,0.625,0.11470025320906908,0.05342537722187215
993,0.5307233445640546,0.437391304347826,0.6101917948468351,0.5416666666666666,0.1384131099025074,0.06410063081219651
994,0.4549427090358521,0.3869565217391304,0.5615161630353128,0.5416666666666666,0.11755614985728792,0.05320845599521407
995,0.5981238081587169,0.4391304347826086,0.7904890669065924,0.7916666666666666,0.31956501741540183,0.1399585808187236
996,0.6036372964950406,0.3313043478260869,0.810605948558242,0.875,0.24757836946933168,0.11412147739616947
997,0.5274500162211115,0.39391304347826084,0.7689734861462788,0.7916666666666666,0.34039833225160515,0.1545310469465193
998,0.36280820279901105,0.24,0.5294521164396653,0.5,0.1743831156456931,0.07665338750121108
999,0.4402448901790873,0.2843478260869565,0.29821012977347805,0.5,0.08328832088942649,0.035498694766693824
