draw,pearson_r,spearman_rho,cosine_similarity,sign_concordance,projection
0,-0.4046607648237904,-0.328695652173913,-0.39128758832958743,0.4166666666666667,-0.05978773631864552
1,0.7401058729809111,0.7530434782608695,0.17400503978758622,0.4166666666666667,0.0275521439050334
2,-0.14450408074328483,-0.1782608695652174,-0.016612397434052628,0.4166666666666667,-0.0018576266462089657
3,0.004747409201237313,-0.07739130434782608,-0.5306600594423605,0.2916666666666667,-0.12412417849409947
4,-0.3889060439443801,-0.3643478260869565,-0.43023658946664606,0.3333333333333333,-0.061346243330988724
5,-0.5079581699148871,-0.48521739130434777,0.32496827338211487,0.75,0.06318939813649366
6,-0.26095948449770445,-0.13565217391304346,0.30600712545836095,0.7083333333333334,0.060522710647107146
7,0.05864828352535367,0.18,0.4223440346820995,0.625,0.055769734451102865
8,-0.34656517200437487,-0.32956521739130434,0.07848787296593364,0.5,0.014342587471030786
9,0.4540798440121345,0.33999999999999997,-0.04175661004114821,0.4166666666666667,-0.009702458690774823
10,0.38980324829566193,0.23217391304347823,0.30880961921715794,0.5416666666666666,0.04821252049595914
11,-0.4211086332655769,-0.40086956521739125,0.04400379543538784,0.5416666666666666,0.007625742343921609
12,-0.26956786042473657,-0.21130434782608692,-0.1875965965136905,0.5416666666666666,-0.018130863308980602
13,-0.001697548002349395,-0.027826086956521737,0.2164191873905117,0.5416666666666666,0.033741825589016713
14,-0.4267525906265456,-0.6113043478260869,-0.7171946044055534,0.125,-0.09643472304823948
15,-0.3060480037735478,-0.22,-0.5655783116883835,0.2916666666666667,-0.0887677942800748
16,-0.1424653865799422,-0.10956521739130433,-0.236962143941159,0.3333333333333333,-0.030474167362875698
17,-0.15843852455075053,-0.17739130434782607,-0.3210312020214078,0.4166666666666667,-0.05541083660746734
18,-0.47099726807788467,-0.4513043478260869,0.2545935843912565,0.625,0.043289316752057404
19,0.11011418895608976,-0.02434782608695652,0.5895472826291014,0.9166666666666666,0.07423808435636388
20,-0.328641530094282,-0.29565217391304344,-0.6635030152199005,0.16666666666666666,-0.10678417974480306
21,-0.342514297328958,-0.3852173913043478,0.2071395612323419,0.6666666666666666,0.03301381158820682
22,-0.3479254429490476,-0.3869565217391304,0.2141895600386276,0.7083333333333334,0.02710560865066437
23,-0.3794771126886495,-0.4208695652173913,-0.2052400056756822,0.5,-0.023968856252733702
24,0.38696143920812553,0.3834782608695652,-0.39577382693371915,0.16666666666666666,-0.07459275200821186
25,0.1344204052358412,0.22,0.1357993391564733,0.7083333333333334,0.01608353052480618
26,0.2767027447251914,0.09217391304347824,0.1376890467946224,0.5416666666666666,0.016490781859853466
27,-0.4475243917336297,-0.4591304347826086,0.35038770506079714,0.7916666666666666,0.06933205063853201
28,-0.2345253526499504,-0.23217391304347823,-0.3128555455290429,0.4583333333333333,-0.05082623623858125
29,-0.12027934382154767,-0.08173913043478259,-0.34531653474235013,0.375,-0.06023856080405413
30,-0.010069405208558469,0.04521739130434782,0.07737344018813098,0.5,0.00847053847817198
31,0.4922903448347562,0.45999999999999996,-0.0038333938870138765,0.375,-0.0004997621000314642
32,0.3545453485730913,0.40347826086956523,0.6404134671153745,0.7916666666666666,0.13734161559054806
33,0.762734376466955,0.728695652173913,0.37941737215332033,0.5,0.051926524980187634
34,0.12761862873329136,0.1452173913043478,-0.25919307257677104,0.375,-0.03559109398559378
35,-0.15279689798796492,-0.17565217391304347,0.20739056349105764,0.4583333333333333,0.02483133905653301
36,-0.2727515634832622,-0.2417391304347826,-0.530354648209884,0.4583333333333333,-0.08912387818437655
37,0.6564897737674958,0.6626086956521738,-0.21996088020995513,0.25,-0.04861219503876597
38,0.2878966636580557,0.1226086956521739,-0.09069790140245404,0.375,-0.013480191084341222
39,-0.4451496143378346,-0.18347826086956517,-0.7094492316754,0.16666666666666666,-0.1343908600133841
40,-0.4605509225115705,-0.46434782608695646,-0.3313478856723792,0.4166666666666667,-0.04552929633919174
41,0.006432430980156292,-0.11043478260869564,-0.09887818481113683,0.375,-0.020190404505678675
42,0.27499683824415944,0.13739130434782607,-0.37053860536729183,0.3333333333333333,-0.0661681204186337
43,-0.5516109810526469,-0.3921739130434782,-0.3037288424484769,0.5833333333333334,-0.0413247563301743
44,0.06475498083746585,0.03826086956521739,0.3520193640169752,0.5,0.034728301156550394
45,-0.05478912392557127,0.12347826086956522,-0.29459350934581824,0.25,-0.06306485180822247
46,0.1420429033123795,0.06782608695652173,0.24772750173420696,0.625,0.024829115320595965
47,-0.08864190853513512,-0.14869565217391303,-0.385165166153467,0.2916666666666667,-0.04802836051981029
48,-0.15961259157327778,-0.03565217391304347,-0.6330023837423614,0.25,-0.14040932691032196
49,0.5703102715105246,0.571304347826087,0.3177870529528029,0.5833333333333334,0.04993444661469382
50,0.1839875251068983,0.04521739130434782,-0.2867194818603092,0.3333333333333333,-0.052508779445794136
51,-0.11062948616253308,-0.1973913043478261,-0.10805320833341457,0.5416666666666666,-0.0106141407178488
52,0.19985936771855825,0.2121739130434782,-0.550834887300795,0.16666666666666666,-0.11998067985374156
53,0.26447799322949506,0.27043478260869563,-0.4295027023200671,0.25,-0.055232131968336005
54,0.08641501544516937,0.09565217391304347,0.46900223051916556,0.7083333333333334,0.10852119881536058
55,-0.300224959311535,-0.1973913043478261,-0.43249170991063307,0.4166666666666667,-0.044285753116113
56,-0.25267221417439084,-0.21478260869565213,-0.4541595815545981,0.3333333333333333,-0.06035507623673036
57,0.1264236650260518,0.1643478260869565,-0.04170192833168604,0.5833333333333334,-0.006091560189787369
58,0.3139575178303191,0.20608695652173914,-0.39125683255423027,0.25,-0.07697038439800875
59,-0.2794491063871623,-0.22869565217391302,-0.12558050370966384,0.5,-0.01650284955300131
60,0.3924572474972336,0.24695652173913044,-0.04051609480913967,0.2916666666666667,-0.005556298731999752
61,-0.08621769244654484,-0.05304347826086955,0.3034991504506769,0.5833333333333334,0.038425764285826294
62,-0.002874809238870589,0.029565217391304344,0.3767564070298625,0.6666666666666666,0.06418731206260615
63,0.24028439168721513,0.05652173913043478,0.2765420773308588,0.5416666666666666,0.03152855616071997
64,0.2814702770177926,0.3217391304347825,-0.26972732188841203,0.375,-0.049000638673776346
65,0.3225556167234611,0.27478260869565213,-0.036934110965834155,0.4166666666666667,-0.0065966491409749865
66,-0.11209025924141938,-0.05304347826086955,-0.4542270497521859,0.3333333333333333,-0.06185711093335965
67,0.06689877368168227,0.09130434782608696,0.07956073501593186,0.5416666666666666,0.01007433605204831
68,0.05039491535188829,0.014782608695652172,0.14605671358944458,0.625,0.014016542165654065
69,-0.530371179818725,-0.5382608695652172,-0.24664274589075186,0.5,-0.02882755804419111
70,0.3768576763122079,0.308695652173913,0.10522081026680721,0.4583333333333333,0.013515851201057019
71,-0.29137067882288065,-0.33304347826086955,-0.5215238015774488,0.25,-0.06836914133960778
72,0.33931971453005305,0.40956521739130425,0.6157885239174196,0.6666666666666666,0.10098575895061784
73,-0.4318059226178585,-0.3182608695652174,-0.7488974410094205,0.16666666666666666,-0.16497395199409337
74,-0.2815007610891592,-0.2756521739130435,0.0001251649580502441,0.4583333333333333,1.8559054924687922e-05
75,-0.07659742317640937,-0.10956521739130433,-0.262504173714256,0.4166666666666667,-0.03249686653809562
76,0.26186692342945656,0.2817391304347826,-0.47754622030786464,0.125,-0.11671829406916827
77,0.5181132586617279,0.571304347826087,0.5484014737897126,0.7083333333333334,0.07030353593671428
78,-0.17556944804134306,-0.2573913043478261,-0.5366413112041623,0.3333333333333333,-0.09633311077801097
79,0.03605239462848667,-0.05304347826086955,-0.2419618765681596,0.375,-0.027207458747701373
80,-0.008722941465854221,0.06521739130434781,-0.15418121167673132,0.4583333333333333,-0.014429161488920993
81,0.031135352232814953,0.002608695652173913,0.5364356866304123,0.8333333333333334,0.10825846826740221
82,-0.3176607945649642,-0.2939130434782608,-0.7027137454925466,0.16666666666666666,-0.12927292703863996
83,-0.2825509104324871,-0.27304347826086955,0.22684921270164465,0.625,0.041853682804811276
84,-0.3351785158199904,-0.41739130434782606,0.554764781489572,0.875,0.1876342772132232
85,0.11573696236026568,0.19478260869565217,0.24077378855104134,0.5833333333333334,0.022872170147492855
86,-0.4068278173594543,-0.4165217391304347,-0.626292953913858,0.25,-0.06745066961300675
87,-0.11262951504072662,-0.08608695652173912,0.2854575366050537,0.75,0.02350135588069726
88,-0.3220592654985447,-0.21391304347826084,-0.2812099352620504,0.4583333333333333,-0.03853981612452524
89,-0.5730794572437656,-0.5652173913043478,0.20385988994658594,0.7083333333333334,0.04682910356865659
90,-0.1768163678310828,-0.015652173913043476,0.41385336165309594,0.8333333333333334,0.08008825585662346
91,-0.07347558958991127,-0.1226086956521739,-0.24309904961287335,0.4583333333333333,-0.04589684755361867
92,0.07559202238892027,0.03217391304347826,0.2270874297068465,0.7083333333333334,0.03699380438940293
93,0.2795425057696796,0.37217391304347824,0.544002760599798,0.5416666666666666,0.06684068006931715
94,0.43778535855719514,0.38956521739130434,-0.2770657593566052,0.25,-0.05049739590958727
95,0.2094502925936028,0.19913043478260867,0.4147390969419206,0.6666666666666666,0.05471943296558966
96,-0.6189210321953958,-0.5321739130434783,-0.8057087067815804,0.25,-0.17215088035972856
97,-0.16909722913439168,-0.1417391304347826,0.18368631012415187,0.7083333333333334,0.018685404391437555
98,0.4899567585502774,0.508695652173913,0.37261262327968986,0.5833333333333334,0.04824090227613465
99,0.6876309667763578,0.7643478260869565,0.1883988619334338,0.4583333333333333,0.024207706289518738
100,-0.2366228201254237,-0.29913043478260865,-0.16010570262852017,0.4166666666666667,-0.01666062588906062
101,-0.014354055102439853,0.0008695652173913043,0.14460990409397873,0.4583333333333333,0.024898017776780048
102,0.13937929342740332,0.06521739130434781,-0.37250071685253133,0.375,-0.043244761497708784
103,-0.02654111776829997,-0.0608695652173913,0.24478592619281567,0.625,0.038567921632413175
104,0.22133079332298064,0.3652173913043478,0.15604859002066324,0.5416666666666666,0.024489583883629335
105,-0.6209376433771067,-0.5608695652173912,-0.08448332967031108,0.5416666666666666,-0.014559281659607116
106,-0.1358590976384222,-0.1695652173913043,-0.5202236928676868,0.25,-0.09359655095188307
107,0.12985337205427178,0.15130434782608695,-0.3805227873821351,0.25,-0.06983311634445566
108,0.23224693154910597,0.2669565217391304,0.38821337407531065,0.5833333333333334,0.044794530670816964
109,-0.10624278501673415,-0.20434782608695648,0.3199558453347104,0.5833333333333334,0.05663952199382565
110,-0.3146240227538477,-0.26347826086956516,0.2482143084289671,0.6666666666666666,0.041803690666277885
111,-0.5724712815906063,-0.6382608695652173,0.03411736157593983,0.7083333333333334,0.008133571807578783
112,-0.015543563796175316,0.029565217391304344,0.18952427099598115,0.5416666666666666,0.020446661736101573
113,0.15143774393550588,0.11304347826086956,0.2274003254950144,0.7083333333333334,0.029760455350117388
114,-0.5514329310362283,-0.5434782608695652,-0.5417996878942275,0.4166666666666667,-0.06148445160946394
115,0.3446407043820695,0.31304347826086953,0.12806382488539772,0.4583333333333333,0.013338644952205813
116,0.352099359333823,0.3417391304347826,0.6071266486446869,0.6666666666666666,0.10808372972054049
117,-0.16390284898890117,-0.09130434782608696,0.06828452196145007,0.4583333333333333,0.009310711657135947
118,0.28629178987039783,0.328695652173913,0.004110436924024555,0.4166666666666667,0.0007197630223251977
119,-0.025690274414070388,-0.054782608695652164,-0.032052912170351194,0.5,-0.0052830073837600204
120,-0.24761433112128256,-0.20173913043478262,0.141329299569444,0.6666666666666666,0.019807909651588112
121,0.0032110683398210715,0.04434782608695652,0.16298422164809384,0.5416666666666666,0.024419926229166018
122,-0.15691193502838163,-0.1452173913043478,-0.29224322385065216,0.2916666666666667,-0.052270143936003356
123,-0.18132075919437252,-0.23652173913043475,-0.46401445981637357,0.2916666666666667,-0.06447135513398794
124,-0.16208894601002893,-0.11391304347826085,-0.22806660396794592,0.4583333333333333,-0.03662963626034293
125,0.08136014617938914,0.07565217391304348,-0.05197529195273788,0.5416666666666666,-0.0071578569254262935
126,0.17855075765212494,0.16347826086956518,0.08937465110171593,0.4166666666666667,0.011137870874594257
127,-0.1628515728540886,-0.09913043478260869,-0.5062002795715076,0.375,-0.05583462658149138
128,-0.18896617318932324,-0.0626086956521739,-0.6852596168962044,0.125,-0.18716136450118828
129,0.3259995309860507,0.3043478260869565,0.51319100204112,0.5833333333333334,0.08032085147983481
130,-0.1259851498436343,-0.04608695652173912,-0.24347013566674114,0.4583333333333333,-0.025833581448273156
131,0.16631340066745132,0.09478260869565217,-0.16783685050799088,0.4166666666666667,-0.01825153724169712
132,-0.3746227598234621,-0.38434782608695645,-0.48884086988211684,0.375,-0.0735528925409557
133,0.4254367475166468,0.46434782608695646,-0.27976230623352705,0.2916666666666667,-0.0537326132784786
134,0.11554799089279917,0.2773913043478261,0.5992294038587369,0.8333333333333334,0.0941166658584403
135,-0.23775830397188663,-0.20869565217391303,0.5533992645936378,0.875,0.09518002756027312
136,-0.12126251327564262,-0.14608695652173911,-0.06722167724380865,0.4166666666666667,-0.007729099518736547
137,0.1707432202981085,0.19565217391304346,0.47197235639245166,0.5,0.07086403840119501
138,-0.19699441837588916,-0.24695652173913044,-0.5453474628420452,0.2916666666666667,-0.10423924293006903
139,0.1727402961462806,0.28521739130434776,0.460613412479143,0.6666666666666666,0.0596485425814178
140,0.20694872326001368,0.22347826086956518,-0.5697383446749824,0.125,-0.1838361959782417
141,-0.3811746204301706,-0.3947826086956522,0.13078919085295157,0.5833333333333334,0.02161252749003964
142,-0.4219549914760945,-0.5147826086956522,-0.30884712873930426,0.4583333333333333,-0.03668509768276194
143,-0.1338556310774425,-0.1591304347826087,0.5545354598184941,0.8333333333333334,0.116955140185813
144,0.4562163505663178,0.5460869565217391,-0.016990364459354274,0.375,-0.002914714759027855
145,-0.6690954130992715,-0.6347826086956522,-0.40407530450618273,0.4583333333333333,-0.07680682897382166
146,0.4581346125709045,0.33391304347826084,-0.22694580336105433,0.25,-0.027874317739038493
147,-0.18292975593275349,-0.19391304347826085,-0.25187917342978217,0.375,-0.023599432042069834
148,-0.23440585490261692,-0.20434782608695648,0.23470571318141956,0.5833333333333334,0.03955068256328915
149,-0.6181342812120413,-0.5982608695652173,-0.3629131005648626,0.4583333333333333,-0.05323889005642694
150,0.16426156525052069,0.1434782608695652,0.6117285435542754,0.7916666666666666,0.1231207945031432
151,-0.6319672991582703,-0.5582608695652173,-0.24605917286171752,0.5416666666666666,-0.039198612116616245
152,0.299684868798767,0.2982608695652174,0.08671321892816672,0.5416666666666666,0.008762765713410638
153,-0.4497895982148645,-0.5043478260869565,-0.11648343024505345,0.4583333333333333,-0.010782932954062017
154,-0.33666206024668904,-0.2226086956521739,-0.6909882007346735,0.16666666666666666,-0.16965182850538796
155,-0.31987611481475825,-0.40869565217391296,0.4541413455481632,0.8333333333333334,0.09243715466440494
156,-0.0046481683844291355,-0.014782608695652172,-0.05418716935981791,0.2916666666666667,-0.0040920509285627404
157,-0.0010217429158329433,0.013913043478260868,0.5571261003155484,0.8333333333333334,0.12201242574388814
158,0.009311786843063975,0.02695652173913043,-0.49186197406567894,0.3333333333333333,-0.06850607537871535
159,0.18054558814144855,0.1243478260869565,0.13178915427247406,0.625,0.016514829052410362
160,-0.2808611998981272,-0.2452173913043478,-0.18081642257833733,0.4583333333333333,-0.025596368721217545
161,0.09307023450970771,0.05826086956521739,0.5715832533623015,0.7083333333333334,0.13585456091330866
162,-0.24053515445390916,-0.2295652173913043,-0.47862383759430427,0.3333333333333333,-0.05867775685267635
163,0.10809197847614363,0.19478260869565217,0.3032886170692807,0.625,0.038397101975719446
164,-0.13268955862733123,0.02608695652173913,-0.09125858347609006,0.4583333333333333,-0.012338164587345763
165,-0.40281755237084355,-0.4052173913043478,0.13107086447390814,0.7083333333333334,0.023525235050305803
166,0.07641014115742624,0.025217391304347827,0.21867187423403212,0.5,0.022735239258990687
167,0.344356176808229,0.35739130434782607,-0.1658317102484661,0.4166666666666667,-0.02372880658592778
168,0.06996077750580786,0.02260869565217391,0.41236084310452187,0.5416666666666666,0.05554480313369063
169,-0.18550321090862154,-0.09565217391304347,0.550111750685816,0.8333333333333334,0.14194258561431028
170,-0.1437067219810706,-0.25217391304347825,-0.6281238031903643,0.25,-0.12948745604164325
171,0.24156018931173834,0.1434782608695652,-0.40752043302071245,0.20833333333333334,-0.08957796126862068
172,-0.17382900496562836,-0.06173913043478261,0.48640053147969275,0.7916666666666666,0.1032153499661592
173,0.5910631323520841,0.6104347826086955,0.6554586942185571,0.6666666666666666,0.10515653275477842
174,0.347977602533882,0.42956521739130427,-0.324842482731556,0.20833333333333334,-0.05366361344180521
175,0.08198378340909296,0.16086956521739126,-0.354365519639278,0.25,-0.054943650435157323
176,-0.013427360761471135,-0.046956521739130425,0.2349129867409895,0.5,0.03273051694016859
177,-0.46831866593677296,-0.4504347826086956,-0.36022073080685385,0.5416666666666666,-0.08923748022105239
178,0.4045019472409065,0.3121739130434782,0.04075394793641858,0.375,0.003944002920997714
179,0.20118856594635587,0.17130434782608694,-0.4068019591786813,0.20833333333333334,-0.06704526003607673
180,0.32907635159997295,0.3008695652173913,0.0029712811407617444,0.4166666666666667,0.000440112435753506
181,-0.12127794662186192,-0.1252173913043478,0.39372342096369484,0.7083333333333334,0.06913200082464596
182,-0.4576438964930519,-0.39652173913043476,-0.47322699662137135,0.4166666666666667,-0.07401710093771931
183,-0.5735141912141033,-0.5965217391304348,0.1454916478775564,0.6666666666666666,0.034949257021505475
184,0.007619323044414941,0.025217391304347827,-0.08936137734007839,0.4166666666666667,-0.012966420581570055
185,0.411630494753622,0.41478260869565214,-0.4068108063581732,0.20833333333333334,-0.0806997324373809
186,-0.10023250928696409,-0.042608695652173914,-0.5875313810485646,0.20833333333333334,-0.11561044579984035
187,0.0607080096747021,0.003478260869565217,-0.11923893530963828,0.3333333333333333,-0.0164914617439046
188,0.02380962774132775,0.07304347826086956,0.24426641006643818,0.625,0.03594126351160996
189,0.1837668632238133,0.17913043478260868,-0.23772431889194265,0.25,-0.03139844351127403
190,0.6409308927872707,0.40695652173913033,0.1807381153868933,0.4166666666666667,0.03447272999387839
191,-0.04572334735719856,-0.005217391304347826,0.5792001543696469,0.8333333333333334,0.09514877763987228
192,-0.3374462865342939,-0.18173913043478263,0.26987820692261455,0.75,0.04824537438222145
193,-0.09900899329555159,-0.08956521739130434,0.013812937903577573,0.375,0.002137926573935582
194,0.1998966225403484,0.27999999999999997,-0.3736065378630155,0.25,-0.04764477165321269
195,-0.4240029811458568,-0.35130434782608694,-0.6077586215488805,0.4583333333333333,-0.10914850284040017
196,0.2408524206834779,0.14782608695652172,0.3494951270743274,0.5416666666666666,0.06272072768752925
197,0.1285598597922636,0.2026086956521739,0.17499973145050965,0.625,0.018392500000160978
198,0.8363963380082525,0.8408695652173912,0.5135896014207524,0.4583333333333333,0.1058988326252361
199,-0.44142441782569203,-0.35826086956521735,0.15319320393165567,0.6666666666666666,0.02925308087909734
200,0.1292653845672847,0.10782608695652172,0.1363290406753767,0.5,0.021349102218661972
201,0.6055769228112038,0.44,0.0093459179888076,0.3333333333333333,0.001316136269271287
202,0.07268208356436698,-0.047826086956521734,0.44655285970119135,0.6666666666666666,0.057733526840522735
203,-0.44683983340080663,-0.5026086956521739,0.2939121271667469,0.6666666666666666,0.05750706631050038
204,-0.21611940155434395,-0.18521739130434778,-0.2170523613348113,0.4166666666666667,-0.03761604851257963
205,0.14704935599637314,0.13391304347826086,0.3925278310981756,0.5416666666666666,0.06245127991173722
206,-0.2381499584130482,-0.25478260869565217,0.22704652349551316,0.625,0.04073428152742816
207,0.000830688815019999,0.03913043478260869,0.33994476733787216,0.75,0.03866015705118
208,0.12313716136811594,0.09478260869565217,0.5584468560837249,0.875,0.1149548313687084
209,-0.0976116213074728,-0.05304347826086955,-0.06380275273424132,0.4583333333333333,-0.009018366393730002
210,0.3927756003943862,0.5113043478260869,0.5927120109320588,0.7916666666666666,0.09416216972030887
211,0.16116211854753748,-0.03652173913043478,-0.5429390865915508,0.16666666666666666,-0.07271207210009303
212,-0.1494951917604594,-0.16869565217391302,-0.49348840316385684,0.3333333333333333,-0.06453767732537942
213,-0.18213914557726069,-0.1878260869565217,-0.6237326221419827,0.20833333333333334,-0.09360701131943142
214,-0.15234241555025924,-0.034782608695652174,-0.5770268559099564,0.20833333333333334,-0.12525626414446803
215,-0.6938025892316195,-0.6921739130434782,0.16695561241498813,0.75,0.03195315882166638
216,0.07697736723573495,0.047826086956521734,0.028860609122978664,0.5833333333333334,0.0035052255347322665
217,-0.014689977869895114,-0.05130434782608695,-0.09965098346406395,0.2916666666666667,-0.01277518169309876
218,-0.3928110209621384,-0.2478260869565217,-0.4011201412079778,0.375,-0.06296028384903654
219,0.6292630115379919,0.4434782608695652,0.272516036755261,0.5,0.032542491828065054
220,0.23011932052347242,0.2652173913043478,-0.016369352587793092,0.5416666666666666,-0.002246782468574276
221,-0.49235867219435786,-0.3756521739130434,0.34011655564332444,0.75,0.09224280455978466
222,0.3753918510830021,0.3321739130434782,0.7074657688965598,0.875,0.13515219096542785
223,0.43637023727823676,0.3852173913043478,-0.43267057341060666,0.20833333333333334,-0.09071273598615026
224,-0.4259944688751463,-0.39652173913043476,0.21030136187577586,0.5833333333333334,0.030287673247241444
225,-0.5260554197834999,-0.5469565217391303,-0.046174593900480884,0.6666666666666666,-0.006429562712688001
226,-0.5554978759547462,-0.5165217391304348,-0.32190057526339855,0.5,-0.03991584964292144
227,0.07024171543744118,0.10695652173913042,-0.23114166961940602,0.2916666666666667,-0.026732710869152576
228,-0.5279435954588185,-0.4017391304347826,-0.21873911757520925,0.5833333333333334,-0.02646850890939309
229,-0.535551987685829,-0.4730434782608695,0.45755015143782646,0.875,0.11659124379458725
230,0.19855042877171405,0.19913043478260867,-0.4427873585934203,0.25,-0.06524374196498536
231,-0.7890024024620121,-0.7782608695652173,-0.4708014149531623,0.5416666666666666,-0.05984353055390001
232,0.2575942991088249,0.24,0.3729185833229948,0.5,0.06211327860362596
233,0.22779921656654617,0.23478260869565212,0.5271893105273712,0.625,0.0876671704079173
234,0.3836149822145549,0.35913043478260864,-0.10551616570714585,0.4166666666666667,-0.017911856005562343
235,0.15059323644266576,0.13478260869565215,0.26754018102004906,0.5416666666666666,0.03422735054887673
236,0.010266049839420005,0.07478260869565216,-0.24297855455773504,0.25,-0.02619051400296973
237,0.5073658516248354,0.42260869565217385,-0.31252444939781915,0.25,-0.06902504433759311
238,-0.4299025373119161,-0.48521739130434777,-0.12294556636238405,0.5,-0.016158593442635764
239,0.1902966069901036,0.16347826086956518,0.09773277670835202,0.5,0.014229206533490975
240,0.6163496715733476,0.6034782608695652,0.4871208588542324,0.625,0.0716401161399026
241,-0.2691887715123623,-0.30347826086956514,-0.6212338166114367,0.3333333333333333,-0.09604674661485085
242,-0.30752172013413537,-0.28521739130434776,0.24028068448068884,0.75,0.04099674086304335
243,0.13433695078515698,0.11130434782608695,0.4285530694155224,0.625,0.09045355057979783
244,0.41093119802104733,0.31304347826086953,0.14053518317119554,0.4166666666666667,0.01722441332404273
245,-0.029544937479330114,-0.04,0.5773763113145702,0.7916666666666666,0.1349433595651675
246,-0.1904962257932712,-0.11304347826086956,-0.09757616347588263,0.4583333333333333,-0.015835663070342468
247,-0.6681894874139556,-0.6417391304347826,-0.6867862566942329,0.25,-0.10591743802685635
248,-0.3309909631225504,-0.23217391304347823,0.09286705844368988,0.5833333333333334,0.012451461576785545
249,0.04489745508839593,0.03652173913043478,0.4450122074709475,0.7083333333333334,0.0752219202719391
250,-0.3139119412754995,-0.34521739130434775,0.03432892107289293,0.5833333333333334,0.00645557561243236
251,0.09695410095378718,0.050434782608695654,0.5641846493646381,0.7916666666666666,0.10486060328693524
252,-0.017837222838216565,-0.01652173913043478,0.4658496878421708,0.7916666666666666,0.09764441370281884
253,-0.6210785053801564,-0.6182608695652172,0.09992347238893731,0.7083333333333334,0.02064497676444198
254,0.04370302299525925,0.08695652173913042,0.5133842123487485,0.75,0.1085738772758426
255,0.34738721214552337,0.2069565217391304,-0.4701286570722049,0.16666666666666666,-0.09584232361612348
256,-0.1548859333482993,-0.15130434782608695,-0.2783973317952491,0.5,-0.03340473908079102
257,0.008923038852162682,0.0634782608695652,0.38556364608029564,0.7083333333333334,0.05640178831740156
258,0.20814835616370117,0.17913043478260868,-0.2492935296870531,0.3333333333333333,-0.026933404466687988
259,0.04466786760616113,0.03913043478260869,0.29113308871090987,0.7083333333333334,0.04210025263516144
260,-0.34147202407244703,-0.32956521739130434,0.33944419238954243,0.75,0.04747956985740914
261,-0.4816748278827149,-0.3565217391304348,0.41339193836396254,0.7916666666666666,0.1394611971167843
262,0.08514721026768196,0.05217391304347826,-0.24234639802468505,0.4166666666666667,-0.03073908757066489
263,0.046810221922371054,0.14260869565217388,-0.10565841778585551,0.5,-0.015895370011795636
264,-0.6701044912094463,-0.6686956521739129,0.15605979165551195,0.75,0.03326075804854852
265,-0.36541104804820024,-0.3347826086956522,-0.26167716959045734,0.4583333333333333,-0.0315197324492994
266,0.1575701151276846,0.16086956521739126,0.577083637983335,0.8333333333333334,0.10079612331844232
267,0.029015053888334703,0.02260869565217391,-0.45378687667656387,0.20833333333333334,-0.07730694698288323
268,0.2026826490286991,0.10434782608695652,0.596923464614137,0.7916666666666666,0.10261856574395942
269,-0.2880483584637502,-0.268695652173913,0.3950910857914013,0.7083333333333334,0.0593342827186751
270,-0.2924624083061205,-0.21043478260869564,-0.2763942639043688,0.5,-0.042154731587334994
271,-0.12021620058669942,-0.07130434782608694,0.11804529777942428,0.625,0.01732630522026622
272,-0.39559140174335117,-0.3173913043478261,0.0014178135252680866,0.5833333333333334,0.0001863378917952695
273,-0.23272930349503296,-0.21913043478260866,0.006499316955236104,0.4166666666666667,0.0008842399240614968
274,-0.11248920448091143,-0.07478260869565216,-0.05729666929114562,0.5416666666666666,-0.008133751367921337
275,0.41450775113815125,0.3947826086956522,0.5930325697849888,0.625,0.09102801668913922
276,-0.3058075941566678,-0.27652173913043476,-0.22001386488831323,0.3333333333333333,-0.03445964189224406
277,-0.30933106416890443,-0.27999999999999997,0.07849343953616511,0.5833333333333334,0.010189671167351796
278,-0.30883319868206077,-0.32260869565217387,-0.6446660189112782,0.25,-0.08137910188365804
279,-0.0648004196002504,-0.02695652173913043,0.5698014118611113,0.8333333333333334,0.08754799026516354
280,0.10662338630339527,0.15391304347826085,-0.2010554803843724,0.375,-0.022988429292788597
281,-0.389025701747034,-0.40782608695652167,-0.0656883501360532,0.625,-0.009773493373991004
282,0.4218143171910356,0.4417391304347826,0.4187416145930699,0.6666666666666666,0.05038157299244617
283,-0.594542535184835,-0.6530434782608695,0.028000352168130585,0.7083333333333334,0.006306997552414551
284,-0.6232140526726335,-0.6252173913043478,-0.015033477362104312,0.6666666666666666,-0.0024233164846891595
285,0.11370027447726974,0.10782608695652172,0.5615760723737219,0.8333333333333334,0.14225257827551185
286,0.2877674364228148,0.27478260869565213,-0.031935083739840726,0.5,-0.003509448954891696
287,-0.009685900361562728,0.049565217391304345,0.5592102267105391,0.7916666666666666,0.15701003749346587
288,-0.5487194616794766,-0.48086956521739127,0.4013184758913214,0.8333333333333334,0.07775116026200533
289,-0.5561976661449386,-0.4460869565217391,-0.6020649118078658,0.2916666666666667,-0.08391216557319497
290,0.5386931521799296,0.42260869565217385,0.6044471143893876,0.6666666666666666,0.06076610972583968
291,-0.3346090283595777,-0.3956521739130434,-0.5109618456255639,0.2916666666666667,-0.08250003809414795
292,-0.7805371413536324,-0.7156521739130434,0.19762476195405523,0.7916666666666666,0.05370111074983449
293,0.10778615225715843,0.14869565217391303,-0.043417799723670984,0.5416666666666666,-0.004643856640375085
294,-0.33484077453171984,-0.32956521739130434,0.29258743011297544,0.7083333333333334,0.07134065969481371
295,0.7639094281804732,0.7878260869565217,0.2550437621324908,0.5,0.04490459126882534
296,-0.2373322978500641,-0.19478260869565217,-0.13630256649907793,0.5,-0.023175139942433205
297,0.46934035532515805,0.4382608695652173,-0.00016901987349716687,0.5416666666666666,-2.8449049805743952e-05
298,-0.37347213322121636,-0.27391304347826084,-0.45068517974580535,0.4166666666666667,-0.0368695246126693
299,-0.5008980457346474,-0.45739130434782604,0.14042003805780356,0.625,0.027809133415877207
300,-0.164067162526873,-0.17391304347826084,-0.007928980900292983,0.625,-0.0007161234820707912
301,-0.050598478126623,0.006956521739130434,0.2567387774423277,0.6666666666666666,0.023670119259774455
302,0.383331934739707,0.35826086956521735,0.7324781020021072,0.875,0.1920658624044868
303,0.29362231559797186,0.28086956521739126,0.49959544278873197,0.5833333333333334,0.07526284105457412
304,-0.40076836771073876,-0.34695652173913033,0.49219497528060135,0.875,0.16172611907930803
305,0.2118583189100297,0.13999999999999999,0.36062292413874864,0.6666666666666666,0.04184434324798859
306,0.3238181282568344,0.3182608695652174,0.3143762648693788,0.5416666666666666,0.03844932990613246
307,-0.030782602368122074,0.002608695652173913,-0.4363689463126511,0.25,-0.09173257124534728
308,-0.2316810865737529,-0.31130434782608696,0.43579253278931257,0.75,0.07911366938093237
309,-0.1305605745056609,-0.1443478260869565,0.1536616682666983,0.5833333333333334,0.02393358135310812
310,0.04151185619441682,0.049565217391304345,-0.4868705603615457,0.3333333333333333,-0.061826210135901984
311,0.3948741539350874,0.3991304347826086,0.5739487551536749,0.6666666666666666,0.08214890791777986
312,-0.2704138661045379,-0.3139130434782608,-0.5411647336146433,0.375,-0.058393499341290844
313,-0.0358237952889773,-0.09652173913043478,0.12532216315279526,0.375,0.02161811170986712
314,0.08729947382247061,-0.003478260869565217,-0.15120647584009828,0.5,-0.023701110580108303
315,0.6495932036860793,0.6347826086956522,0.13673686628095366,0.4166666666666667,0.025809507963009425
316,-0.4002864092816508,-0.45826086956521733,-0.02683388073706984,0.5833333333333334,-0.004276577215374525
317,-0.5769828966214217,-0.5208695652173913,-0.3473950192473327,0.4583333333333333,-0.04739132551047345
318,-0.10398662553890506,-0.1252173913043478,-0.09651647179500725,0.5416666666666666,-0.013698109377853067
319,0.035615780312638984,-0.03043478260869565,-0.4224053050321898,0.2916666666666667,-0.06711394130295273
320,-0.09901029675857817,-0.1695652173913043,-0.46020301976393296,0.2916666666666667,-0.06712838595856879
321,-0.41544157250408126,-0.4765217391304347,0.05298195160631825,0.625,0.010323069140034351
322,-0.40486593081476974,-0.43304347826086953,-0.5770063515399648,0.3333333333333333,-0.08070849174607617
323,0.005657241584755279,0.06956521739130435,0.1357463533058751,0.5,0.023620464780939078
324,0.38789647143102707,0.35478260869565215,0.5053082789276896,0.625,0.08658570676266324
325,-0.7496693173182019,-0.6417391304347826,-0.4783893586514555,0.4166666666666667,-0.07516130332017386
326,0.5486532389450054,0.537391304347826,0.4496166261155931,0.4583333333333333,0.06517484997035308
327,0.4684806218692042,0.3678260869565217,-0.2656182274683651,0.25,-0.033828763163148534
328,0.15259127385239274,0.09739130434782609,-0.3340918866559296,0.25,-0.0408875710451528
329,0.2480543506753009,0.25913043478260867,-0.1869906899124934,0.3333333333333333,-0.027913366202816266
330,0.12352254969518978,0.02,-0.4251925936111381,0.25,-0.08804901660021953
331,0.23956160049093655,0.021739130434782605,-0.15042950117006035,0.2916666666666667,-0.02189205835109667
332,-0.646989327224945,-0.5530434782608695,-0.45371765535374925,0.4583333333333333,-0.05136138925723394
333,-0.1963555363913064,-0.15565217391304348,0.40609645668124833,0.75,0.08997138962437874
334,-0.7109026554983255,-0.6313043478260869,-0.8549674583443415,0.08333333333333333,-0.14957415689187978
335,-0.2622644901197627,-0.25217391304347825,0.17518273794608544,0.5416666666666666,0.02947480777821528
336,0.17159701697413215,0.23739130434782607,0.1866985157680519,0.375,0.0248261972827646
337,-0.11108055219152409,-0.07130434782608694,-0.292674193406068,0.375,-0.035668558333671226
338,-0.05174576282797142,-0.12608695652173912,0.1377662735583707,0.5833333333333334,0.013963192817357233
339,0.4398769725680455,0.3869565217391304,-0.07416325544022014,0.4166666666666667,-0.011254889719208775
340,-0.38459491214620645,-0.3356521739130434,0.14389993595579922,0.625,0.03153968109902508
341,-0.25093511667609303,-0.19826086956521738,-0.552108095204562,0.25,-0.08381330367497754
342,-0.24122032456197806,-0.29739130434782607,-0.5423562844003268,0.25,-0.10300165501480332
343,-0.3527400526236129,-0.3026086956521739,-0.06544047223113103,0.5416666666666666,-0.008954943020067078
344,-0.06471276603423508,-0.07565217391304348,-0.04462154792633635,0.4583333333333333,-0.0076910611226851085
345,-0.2963032597573403,-0.31304347826086953,-0.401069357841606,0.3333333333333333,-0.06537388044756745
346,-0.46182423827868546,-0.3095652173913043,-0.009529137204407437,0.5833333333333334,-0.0009893868001396831
347,-0.5704876855683498,-0.528695652173913,0.19089041794472592,0.7083333333333334,0.047255151744210445
348,-0.0019714804770276997,0.009565217391304347,0.19729975964686244,0.4583333333333333,0.02190089307396538
349,0.12421844730786366,0.19913043478260867,-0.33522441885178306,0.3333333333333333,-0.06148624803541485
350,0.07456071131086041,0.03217391304347826,0.02460011820650696,0.625,0.003353242442977352
351,-0.006725486296141697,0.002608695652173913,-0.2208621341456188,0.4583333333333333,-0.025995988283735515
352,-0.18497499201420606,-0.2217391304347826,-0.5320036098297873,0.20833333333333334,-0.10148067824481034
353,0.07975282445768812,0.11304347826086956,0.3021479359600619,0.6666666666666666,0.045631609390606405
354,-0.11558998613582641,-0.14608695652173911,0.22580282622431852,0.75,0.03786521407504271
355,-0.1024250165568787,-0.11130434782608695,0.23882369256395733,0.75,0.04844761884738973
356,0.42447756400119707,0.41739130434782606,0.05002482875129978,0.5,0.0083362582132018
357,0.4342780472618801,0.29130434782608694,0.5867667431881631,0.6666666666666666,0.09310823584498357
358,-0.3012914806778,-0.3182608695652174,-0.57109480845468,0.25,-0.09830984001019961
359,-0.5459487454418753,-0.5721739130434782,-0.6506366802987854,0.3333333333333333,-0.08331263293095825
360,0.07659736242088848,0.07565217391304348,0.32754130857896335,0.6666666666666666,0.033815676800561294
361,0.03130332732678766,0.08347826086956521,0.14657748106503396,0.625,0.015295426978203222
362,0.4008628760758056,0.3104347826086956,0.4969327609402632,0.625,0.06653829433605529
363,-0.2095827694708267,-0.2791304347826086,-0.5769531992002435,0.25,-0.11417822632468548
364,0.23914099893242005,0.25478260869565217,-0.33559754107798784,0.25,-0.049099647249129984
365,-0.5588775237213952,-0.48173913043478256,0.035436062385076225,0.75,0.007853442500134662
366,0.6728510543209117,0.6843478260869565,-0.1868715989948258,0.2916666666666667,-0.03467485224468088
367,0.5292588510719817,0.43652173913043474,0.3102910764036045,0.5,0.04275723916816741
368,-0.22886010278753913,-0.18173913043478263,-0.11458713376973394,0.4583333333333333,-0.02029314069711432
369,0.7193196936646843,0.7217391304347825,0.38318722495710816,0.5416666666666666,0.060452369021799665
370,0.03187133156048384,0.11043478260869564,-0.41106590219908207,0.25,-0.07798876929045889
371,0.2240829202909068,0.25999999999999995,0.39152384547515146,0.75,0.05700858764305831
372,0.5562434075045861,0.528695652173913,0.7530480282598231,0.8333333333333334,0.12428826783428427
373,-0.41229398306915066,-0.4269565217391304,-0.07882897498734874,0.4583333333333333,-0.009761258736139707
374,-0.09629318337562304,-0.06173913043478261,-0.5634839653061514,0.25,-0.09344369676504774
375,0.19016936575621893,0.15652173913043477,0.6380930468798753,0.8333333333333334,0.13535084643741072
376,0.2294205716330473,0.1973913043478261,0.6857060042794841,0.875,0.1787331647939288
377,0.1481129218211377,0.11043478260869564,0.5362820162873898,0.6666666666666666,0.07740984509638936
378,0.10619906775820015,0.11391304347826085,0.0937156762268665,0.4583333333333333,0.01834716518526118
379,-0.4911963917831805,-0.437391304347826,-0.24218477845500674,0.4166666666666667,-0.022332375917384448
380,-0.5701165141115863,-0.4956521739130434,0.3491540699200791,0.7916666666666666,0.0814078094883715
381,-0.062233648978083145,-0.1391304347826087,-0.40973971919559976,0.3333333333333333,-0.05079500105118314
382,-0.025824305496209232,-0.05565217391304347,0.210607917034758,0.5833333333333334,0.024824249634982393
383,-0.1974811204771405,-0.19565217391304346,-0.6384771085901582,0.16666666666666666,-0.1073516962061035
384,0.21852586274089025,0.1034782608695652,0.0624802151139975,0.375,0.007417756218100276
385,-0.28670067267964106,-0.2826086956521739,-0.2993437091912184,0.375,-0.04623880177079892
386,0.0899662320311759,0.0017391304347826085,-0.17876905573391305,0.5,-0.018384959869396294
387,-0.007618149771973087,0.013043478260869565,0.4157119328257835,0.7083333333333334,0.06315429265629358
388,-0.1837336323111657,-0.3182608695652174,0.3053025515579276,0.7083333333333334,0.05587796369703313
389,0.450312287222251,0.48869565217391303,0.4598665030680398,0.6666666666666666,0.04679986977676686
390,-0.23568637130152095,-0.31652173913043474,-0.11166480066180222,0.4166666666666667,-0.011495633200021201
391,-0.25934067492082297,-0.2269565217391304,0.41873216166197597,0.8333333333333334,0.08739006713913783
392,-0.21550975185958976,-0.1643478260869565,-0.4972303884746022,0.25,-0.06996797961083724
393,-0.07475335567363649,-0.15478260869565216,-0.006945982170966451,0.5833333333333334,-0.0007947035146910266
394,-0.21622560662464002,-0.10782608695652172,-0.6106580131030657,0.20833333333333334,-0.12500531108502738
395,-0.12225850917859499,-0.1226086956521739,0.1109543751297144,0.5833333333333334,0.014015422362933194
396,-0.4538698768920008,-0.4478260869565217,-0.3552485153375877,0.375,-0.06165526585198461
397,-0.05126824203891681,-0.023478260869565212,0.5907702677806135,0.875,0.15338694090823474
398,-0.16079193817270088,-0.20956521739130432,0.43396667335412353,0.7916666666666666,0.10794002583463587
399,0.05400898720932707,0.03739130434782608,0.4726745631961056,0.7916666666666666,0.09284669418642721
400,0.2999924697031439,0.39391304347826084,0.7022312538528899,0.8333333333333334,0.17171712423438829
401,-0.5046262701025226,-0.5104347826086956,-0.13557181208694924,0.5416666666666666,-0.027001586567666023
402,-0.2831014239643538,-0.4156521739130434,-0.5210105136286638,0.20833333333333334,-0.07382789779931172
403,-0.5948190925010308,-0.5382608695652172,-0.21002349546092405,0.5,-0.029400333209617296
404,-0.30206943502813904,-0.32347826086956516,0.3150272153037132,0.625,0.062062034956629236
405,-0.17506847768458572,-0.20173913043478262,-0.06416976487030461,0.5,-0.007443777029095847
406,0.34048181406059963,0.2295652173913043,0.3567292432339332,0.375,0.04735322736360478
407,0.42834811301190057,0.4530434782608695,0.3762692590103149,0.625,0.048780650032096584
408,-0.3446082689329949,-0.2678260869565217,0.2911443891039247,0.75,0.04643790048040823
409,-0.1345219718695566,-0.08347826086956521,-0.3897530865257389,0.25,-0.06028431203748872
410,-0.2992259715791534,-0.37304347826086953,0.02049030028677069,0.7083333333333334,0.0036157632950077363
411,-0.2318830761678919,-0.2417391304347826,-0.5040969066245597,0.2916666666666667,-0.0610599147656031
412,-0.2616737827421391,-0.21304347826086956,-0.18285788287448587,0.3333333333333333,-0.036524842164691665
413,-0.47781174786716923,-0.5078260869565216,0.037858022962766184,0.5416666666666666,0.006175070490098567
414,0.08272010950934144,0.16086956521739126,0.47317682183376747,0.7083333333333334,0.08146208537689911
415,-0.4135935508796382,-0.3608695652173913,-0.718145797328684,0.20833333333333334,-0.15439245550581823
416,-0.24645874368679563,-0.19826086956521738,-0.5482192959422452,0.3333333333333333,-0.09166062003288183
417,0.12368995148167601,0.11739130434782606,0.5116266546576524,0.7083333333333334,0.10840301552492898
418,0.31749108722032127,0.2417391304347826,0.4554827006734464,0.625,0.05776104784027803
419,-0.006719092203732523,-0.02434782608695652,0.4597687964990539,0.75,0.08494253415136599
420,0.057047349688343615,0.04521739130434782,0.34634213442254186,0.7083333333333334,0.0631640562153616
421,-0.34071549309974036,-0.3660869565217391,0.26394948415092245,0.6666666666666666,0.03741165636370943
422,-0.3583624542195655,-0.3104347826086956,-0.11809672102871752,0.5,-0.015970423236492177
423,-0.3861487877821562,-0.2895652173913043,0.11337234394357301,0.5833333333333334,0.022591619666973584
424,0.2052467455474212,0.21478260869565213,0.044381512373999954,0.5416666666666666,0.006126649875824877
425,0.06856860941047294,0.014782608695652172,-0.05024693836933412,0.4166666666666667,-0.0060451375019444226
426,-0.5942458191352202,-0.6226086956521739,-0.5866614600797379,0.3333333333333333,-0.09767231304169165
427,-0.23206189548743777,-0.11739130434782606,-0.13239305863293158,0.5833333333333334,-0.025430985955974934
428,0.274778860106139,0.15217391304347824,0.10759058404812523,0.4583333333333333,0.009206676533812045
429,-0.10342798350465458,-0.07565217391304348,0.31491106117346473,0.5833333333333334,0.04313593622318973
430,0.4633889898973222,0.5147826086956522,0.577180509152226,0.7916666666666666,0.08617352010878393
431,-0.3613280771482147,-0.5139130434782608,0.04677242285685596,0.5833333333333334,0.004730725271942906
432,-0.3516577532088225,-0.2573913043478261,-0.3196985491874426,0.3333333333333333,-0.07384460608426291
433,-0.06805209717769231,0.08782608695652173,-0.10630012237905842,0.2916666666666667,-0.013980025231492527
434,-0.21124565583863253,-0.2052173913043478,0.2513127596921414,0.75,0.044229102042501064
435,-0.26609542681496373,-0.1878260869565217,-0.04363428923734736,0.5,-0.005876707630987747
436,-0.08225378537301345,-0.12347826086956522,-0.4932571093701059,0.3333333333333333,-0.07951730622988255
437,0.211266813617968,0.2226086956521739,-0.30473328933780025,0.3333333333333333,-0.05843216932367662
438,0.3597250594145619,0.14782608695652172,-0.3972235101744529,0.25,-0.07257089326672272
439,-0.40884716421288136,-0.39739130434782605,-0.03738957697444723,0.5833333333333334,-0.005114477308728544
440,-0.2801987861978175,-0.27043478260869563,0.29044067246466926,0.7083333333333334,0.031241501501520195
441,-0.3422452146395276,-0.36260869565217385,-0.11404033694347189,0.4583333333333333,-0.020079583318186142
442,0.5663201893189956,0.4252173913043478,0.2905160871356709,0.4583333333333333,0.05960293426148466
443,0.22357146846013465,0.19826086956521738,0.11739348069534018,0.4583333333333333,0.014281755075687927
444,0.05792402390873786,0.047826086956521734,0.10913549974917172,0.5833333333333334,0.015486968012568957
445,-0.449129798131755,-0.4513043478260869,0.2639785760737163,0.7083333333333334,0.0537900841818062
446,-0.4606809166944008,-0.4765217391304347,-0.17734823336968353,0.5,-0.029778747077750557
447,-0.37561050944348284,-0.37739130434782603,-0.1368994480331379,0.625,-0.01672278380137143
448,0.112468954021076,0.1252173913043478,0.4899401311555688,0.7083333333333334,0.04598589541347098
449,0.033739725926250186,0.08347826086956521,0.6048164321765818,0.8333333333333334,0.18782395471837632
450,-0.1618694434467945,-0.10782608695652172,0.43261273539684625,0.8333333333333334,0.0832369745338269
451,-0.09997839515866346,-0.023478260869565212,0.21164640239713797,0.6666666666666666,0.022139563530875074
452,-0.5610873883547666,-0.4278260869565217,-0.6237188868456834,0.25,-0.08356571197582176
453,0.3495391267978913,0.2869565217391304,-0.07243598231905757,0.4166666666666667,-0.00780530967320074
454,-0.2978551135824909,-0.29130434782608694,0.33433825853238974,0.7083333333333334,0.039421721080195544
455,-0.23795754706378838,-0.2843478260869565,-0.045319449326267636,0.4166666666666667,-0.009009545851644896
456,-0.4319035182170351,-0.2773913043478261,-0.38637418732384604,0.4583333333333333,-0.0655996735294474
457,-0.000200350298868196,-0.06608695652173913,0.5676229121775672,0.8333333333333334,0.14924821648729852
458,0.23044921098644902,0.3008695652173913,-0.024512623183937654,0.4583333333333333,-0.0029333882565402594
459,0.339561239290302,0.5043478260869565,0.5901541920150674,0.6666666666666666,0.11247883664657864
460,-0.13619218286126156,-0.08,-0.4188396346161712,0.3333333333333333,-0.03914070389052807
461,0.4781105391395428,0.49652173913043474,-0.04409246130926658,0.375,-0.008682716606315083
462,-0.10527506203497622,-0.06521739130434781,-0.2483962167820211,0.4583333333333333,-0.0333210800423785
463,-0.5011465729825186,-0.40869565217391296,-0.0688913384456935,0.625,-0.012031086292211848
464,0.3122438153511825,0.33826086956521734,-0.0898505567496844,0.5,-0.012123037087607648
465,0.21151567439839397,0.18086956521739128,0.030658247290693132,0.4583333333333333,0.0034707080553575196
466,-0.42543700056969735,-0.4356521739130434,-0.053597880417094,0.4583333333333333,-0.00814095818192801
467,0.27260324648394957,0.348695652173913,-0.09511055032446447,0.5416666666666666,-0.009312584919148664
468,-0.36250972572702767,-0.3043478260869565,-0.30637146713256386,0.4583333333333333,-0.037345960100684736
469,0.47104148249411776,0.4208695652173913,0.08522027565170288,0.3333333333333333,0.015676235216229947
470,-0.7561992941775386,-0.7452173913043478,-0.4064339069478,0.5,-0.05844019084093072
471,-0.09549706922878087,-0.05739130434782608,-0.26960170078756307,0.4166666666666667,-0.03182131152781535
472,-0.06631555138292422,-0.08956521739130434,0.008402046444600124,0.5416666666666666,0.0014150305539233922
473,-0.31876178818502365,-0.2904347826086956,0.12513891472747013,0.5416666666666666,0.022848988678890396
474,-0.4698052773259053,-0.5234782608695652,-0.5135512768859538,0.4583333333333333,-0.09045310611305657
475,-0.2805248717019435,-0.3739130434782608,0.18995847017020437,0.5833333333333334,0.02529107184066694
476,-0.38127376916688716,-0.41130434782608694,-0.41980232100797166,0.375,-0.04394959935315849
477,0.46268894945134176,0.4721739130434783,-0.19671928881603926,0.4166666666666667,-0.033235423685164585
478,-0.25375751331475793,-0.18869565217391301,-0.5015398573558247,0.2916666666666667,-0.08649822582354233
479,-0.007408575891676844,-0.002608695652173913,0.21353613329508764,0.625,0.022106992586800076
480,0.34162405192114986,0.35478260869565215,0.4504744147588375,0.625,0.09493451048646624
481,-0.39365035608737264,-0.3121739130434782,-0.34306039484197504,0.4166666666666667,-0.04222614829777667
482,0.2352163383375948,0.23478260869565212,0.5843422489466578,0.75,0.09646334281025015
483,-0.2316527904004418,-0.15130434782608695,-0.6367201291093542,0.16666666666666666,-0.13595055755000876
484,-0.1515789959824125,-0.1208695652173913,-0.18416782306940394,0.375,-0.03387629197935509
485,0.28042675483045265,0.16869565217391302,0.6187776393799965,0.7916666666666666,0.12218306973044653
486,0.36283091258639855,0.39391304347826084,0.07461434839194626,0.5,0.00964897795294997
487,-0.19271693675320178,-0.08347826086956521,-0.1385408698605876,0.4583333333333333,-0.017670809807329154
488,-0.0997196952372921,0.04434782608695652,-0.4465776766934133,0.25,-0.05304940933283367
489,-0.06605854750046214,-0.06782608695652173,0.3062106358222527,0.625,0.05375634117321604
490,-0.0030255862530856187,0.006956521739130434,0.6419808142692438,0.875,0.16080775665976002
491,0.29611353178160194,0.2582608695652174,0.5862681038001131,0.8333333333333334,0.08883373297478966
492,0.2800754369142283,0.09826086956521737,0.12813977292338075,0.5416666666666666,0.019989135571612776
493,-0.5535536016958258,-0.4208695652173913,-0.22069374579965784,0.5833333333333334,-0.03950279295864305
494,-0.3378588965858198,-0.2773913043478261,0.22928129711195214,0.6666666666666666,0.03823678866347959
495,0.03793419882312555,0.0008695652173913043,-0.2950750394566541,0.375,-0.048802898979441484
496,-0.043990578215713894,-0.10173913043478258,0.4127886117082843,0.75,0.05489685539278173
497,-0.3330418452592212,-0.4121739130434783,-0.0642582514919146,0.5833333333333334,-0.008087075090816555
498,0.19616441630856646,0.2278260869565217,0.0805386006966058,0.5833333333333334,0.012528200123961048
499,-0.26440340017456404,-0.15130434782608695,-0.41214767357853926,0.4583333333333333,-0.05877434300749312
500,0.014802978950427578,0.03130434782608695,-0.5329719385054036,0.20833333333333334,-0.08573450062515527
501,0.2002501443640053,0.13478260869565215,0.03443719126749611,0.4166666666666667,0.004735079803937958
502,0.11445978366747976,0.1452173913043478,-0.022272674721606118,0.4166666666666667,-0.0027826889458363374
503,-0.17604894664290208,-0.08521739130434783,0.4920064260874865,0.75,0.12403479848178026
504,0.15898487208146445,0.17217391304347823,0.5433206340949364,0.8333333333333334,0.08331690166041161
505,0.18739347246555887,0.21565217391304345,-0.20227500822011513,0.5,-0.020172964955347705
506,-0.48444290876199214,-0.45652173913043476,0.3668890241977855,0.8333333333333334,0.07455751698472599
507,0.27735262168694785,0.13304347826086957,-0.0257458670417808,0.3333333333333333,-0.004191367900074333
508,-0.35643081489707173,-0.3904347826086956,0.3628405115134865,0.75,0.07547964067064042
509,-0.1146771254655947,-0.19304347826086957,0.4673495771397446,0.75,0.06821448061452572
510,-0.07926394376182457,-0.2269565217391304,0.2312374375248431,0.5833333333333334,0.03247270901375545
511,-0.4923252932644306,-0.5121739130434783,-0.5445343129400324,0.20833333333333334,-0.05982790602343908
512,-0.11006784487524034,-0.15043478260869564,-0.5069621891324801,0.3333333333333333,-0.06671690222315352
513,0.1769924813479914,0.1678260869565217,0.07087472016808688,0.5,0.017281578060918516
514,0.09715716287637483,0.11304347826086956,-0.13092675046647886,0.4583333333333333,-0.01946895749348962
515,0.45600108345406226,0.49478260869565216,0.3393344442086727,0.5416666666666666,0.06555845147044391
516,0.2798713233878448,0.328695652173913,0.3976382584256343,0.7083333333333334,0.060525422157899716
517,0.13366437445244334,0.09043478260869564,0.17216207370200895,0.5,0.01908024018087906
518,-0.21079676592433552,-0.24608695652173912,0.4519179525399602,0.75,0.08651409990243543
519,-0.07267354890306045,0.07478260869565216,-0.08289344162920187,0.5,-0.014344566057893235
520,-0.006461605771241788,-0.041739130434782605,-0.567131452514493,0.20833333333333334,-0.121933949620918
521,0.2811764052244855,0.29130434782608694,-0.017651977363033335,0.375,-0.001994437748102293
522,-0.6344331963892978,-0.5182608695652173,0.3031767207874337,0.7916666666666666,0.06147824073587237
523,-0.015233847442295348,-0.03565217391304347,-0.3927752178097275,0.4166666666666667,-0.05586629987846275
524,-0.2604627313853096,-0.3426086956521739,0.3548621168673133,0.75,0.064753442356811
525,0.13915295842271846,0.19478260869565217,0.1939739014621095,0.7083333333333334,0.022030109798251433
526,-0.4374800504315298,-0.3852173913043478,-0.5123396435806125,0.4583333333333333,-0.07924761406395847
527,0.1359047600681214,0.07478260869565216,-0.23053006336106718,0.375,-0.02831503566346154
528,-0.40891244430646034,-0.4878260869565217,-0.45427949125852535,0.3333333333333333,-0.07161118615424679
529,0.08491926020547835,0.034782608695652174,0.5558992783908167,0.6666666666666666,0.09114487091227934
530,-0.15159973030539964,-0.1391304347826087,-0.30311444284498495,0.4166666666666667,-0.04905463249756634
531,-0.15922712758360386,-0.18608695652173912,-0.050491801024414563,0.5416666666666666,-0.0070156516486691274
532,-0.17607498202864927,-0.12869565217391304,-0.5400864218931812,0.375,-0.07841913186970408
533,-0.3776911658232035,-0.3643478260869565,0.4097924611080257,0.8333333333333334,0.07602528365121085
534,0.2976460262897174,0.3643478260869565,0.04172782081770802,0.5833333333333334,0.0040983532394554024
535,-0.34224222172083374,-0.2982608695652174,-0.515526820399475,0.25,-0.07597604386668831
536,-0.4688709413643314,-0.5530434782608695,-0.6917881605831657,0.20833333333333334,-0.12363195229608777
537,-0.7636934134318942,-0.7434782608695651,-0.2607443799511495,0.5833333333333334,-0.026078202384818963
538,-0.5761998182625713,-0.4504347826086956,-0.08253940668639721,0.5833333333333334,-0.015578097953979603
539,-0.33573883120981596,-0.32608695652173914,0.2649374967395443,0.6666666666666666,0.062421030436812935
540,-0.15267690651810156,-0.15130434782608695,-0.3817667203736538,0.4166666666666667,-0.0577152842063957
541,0.0711721878630063,0.08956521739130434,-0.3721926052165059,0.4583333333333333,-0.061366689142011654
542,-0.4684051051880406,-0.3869565217391304,-0.7464474581320834,0.25,-0.11397990782651321
543,-0.3238520601664694,-0.37043478260869556,0.4795417094639922,0.8333333333333334,0.14184186747155653
544,0.594992132313735,0.5017391304347826,0.02151103405396695,0.375,0.003087135439587514
545,0.2992110643797874,0.2573913043478261,0.25249985696476757,0.5416666666666666,0.045092338632861335
546,-0.03451751672387999,-0.09304347826086956,0.1389625187473109,0.5833333333333334,0.020651617096890833
547,0.6991013613634196,0.6382608695652173,0.8282885112425216,0.9166666666666666,0.14295463065865985
548,-0.0643480157985908,-0.02,0.12545812185175018,0.4583333333333333,0.01340234494823633
549,-0.3080145622432882,-0.21913043478260866,0.43256247847415075,0.7916666666666666,0.07538360243912005
550,-0.16698173934985788,-0.1217391304347826,-0.18482890258130416,0.4583333333333333,-0.02348921234514471
551,0.11612004409332495,0.1695652173913043,0.15999949521034512,0.5833333333333334,0.026095064825812517
552,-0.058992837408092164,-0.07391304347826086,-0.14701330084710637,0.375,-0.020034033567910493
553,-0.4543170839338058,-0.348695652173913,-0.2928487004643346,0.5,-0.030570167568407063
554,-0.2922536718889107,-0.32695652173913037,0.060210143252468415,0.5,0.01563525458123093
555,0.2471635319326551,0.1869565217391304,0.6738256547461979,0.875,0.13844338394215486
556,-0.5491941236053702,-0.44,-0.7419723488732728,0.4166666666666667,-0.14763923751233224
557,-0.34659291014190763,-0.3278260869565217,-0.19572196758776378,0.4166666666666667,-0.021304638074385273
558,-0.30333179587004144,-0.2652173913043478,0.18870667184026618,0.5833333333333334,0.02947622148859745
559,-0.08238070922853384,-0.05130434782608695,-0.3185071422500081,0.2916666666666667,-0.057300214037437715
560,-0.16036268077453833,-0.13304347826086957,0.2997503888335812,0.625,0.04669808632343856
561,-0.3787690917923382,-0.31565217391304345,-0.5868438837013575,0.25,-0.06398183603812822
562,-0.2546257488830383,-0.21130434782608692,0.0010478949332552512,0.5833333333333334,0.0001321865355759931
563,-0.37869617160858315,-0.33739130434782605,-0.10050049126112721,0.375,-0.01521484711085541
564,-0.03366938843144862,0.005217391304347826,0.2703973709171494,0.5833333333333334,0.04649444139319812
565,0.03729809087984763,-0.21478260869565213,0.3928888920600621,0.7083333333333334,0.034972633344915675
566,0.6116634683326578,0.6191304347826087,-0.1978083992282956,0.3333333333333333,-0.038074685839837016
567,0.10990171398825063,0.13391304347826086,0.18169993502922016,0.5833333333333334,0.0265499977939248
568,-0.4276318645313565,-0.3869565217391304,-0.5457610733082451,0.3333333333333333,-0.08943549371502546
569,-0.1434504764512376,-0.21913043478260866,-0.039092431822480754,0.625,-0.004846356360393181
570,0.19485031570477607,0.16869565217391302,-0.022823284888681267,0.4583333333333333,-0.0036714224977262787
571,-0.4984124516186741,-0.40782608695652167,0.18444439502821297,0.7083333333333334,0.03319057097060366
572,0.2601407402067416,0.24608695652173912,0.032360246161955854,0.5416666666666666,0.005260253387120571
573,-0.24402833712489347,-0.12869565217391304,-0.36110977525270216,0.4583333333333333,-0.03997600129224646
574,-0.4143471629117583,-0.44260869565217387,-0.6817752805794568,0.25,-0.10321122363076506
575,-0.19861912180528835,-0.15652173913043477,-0.25768314794058444,0.20833333333333334,-0.0433977415597543
576,-0.3111640051516508,-0.25217391304347825,-0.34018165045901505,0.2916666666666667,-0.05933862055622392
577,0.2524074658376592,0.18347826086956517,-0.09759852221269863,0.5416666666666666,-0.013348276087401955
578,-0.563179466795902,-0.5226086956521738,-0.6066134319381866,0.3333333333333333,-0.07559458638496414
579,0.3616731312305381,0.2782608695652174,0.6897072446565694,0.875,0.08174815294110493
580,-0.3049579814446578,-0.16695652173913042,-0.010567491771351854,0.625,-0.0016466629175992348
581,-0.5833953026605831,-0.5165217391304348,-0.39330921649176587,0.4166666666666667,-0.03523939659932331
582,0.11037936727370443,0.15043478260869564,0.48435543230782846,0.6666666666666666,0.07125471214421483
583,-0.03468000644584389,-0.10434782608695652,-0.4367371070984116,0.3333333333333333,-0.07508213933966551
584,-0.1863298836183922,-0.18521739130434778,-0.39380062703798085,0.375,-0.04580694566494053
585,-0.40958276716055597,-0.40782608695652167,-0.5044182972250271,0.20833333333333334,-0.07350133466329946
586,-0.23375677151140445,-0.2478260869565217,0.1783634987057586,0.5416666666666666,0.028256720145090362
587,-0.005165877796516359,0.019130434782608695,-0.36137430217817174,0.3333333333333333,-0.04637761329689904
588,-0.27579676822491284,-0.22347826086956518,-0.5629535519717279,0.3333333333333333,-0.09883181155893865
589,0.23037460890961206,0.17565217391304347,-0.17392117895731016,0.4583333333333333,-0.0308587065221233
590,-0.377183207693215,-0.38,0.08774095286007734,0.5416666666666666,0.015522909846451155
591,-0.2836684417750678,-0.32956521739130434,0.4120803108903549,0.75,0.09030408339526738
592,0.6178704125571384,0.5834782608695652,0.6780062214216112,0.7083333333333334,0.12412367961737149
593,-0.07700640589398075,-0.08521739130434783,0.06493346009302335,0.625,0.008742183796456904
594,0.3833506391838416,0.3652173913043478,0.7104559953905909,0.7916666666666666,0.1807540109202686
595,0.039432521057182715,0.04608695652173912,0.40839034151823417,0.6666666666666666,0.053450421772247625
596,0.4835993976513221,0.5426086956521738,0.04471856239181277,0.4583333333333333,0.008899766379386413
597,0.2003975205000224,-0.011304347826086955,0.18740912003585528,0.4583333333333333,0.023227793355484264
598,0.3375592607591067,0.2756521739130435,0.6091299463448085,0.7083333333333334,0.08827379167041872
599,0.347593013576182,0.3095652173913043,0.604330487312739,0.6666666666666666,0.09235967266785451
600,0.1508338628500788,0.26347826086956516,0.017318171510503886,0.3333333333333333,0.002943548357187799
601,-0.3553520347059286,-0.19043478260869565,0.11615584931798298,0.625,0.016460416343750242
602,0.037697938088183655,0.034782608695652174,-0.24015727601087633,0.3333333333333333,-0.030828787101560833
603,0.7133110367057176,0.5382608695652172,-0.016339980751202375,0.2916666666666667,-0.0029078347118237187
604,-0.10802125071923803,-0.15304347826086956,-0.23141822323070735,0.4166666666666667,-0.02727629570715382
605,0.3835784141591071,0.30347826086956514,0.13896568504723736,0.5,0.015747692684146875
606,0.4738077891201209,0.3904347826086956,0.6168161180771061,0.5833333333333334,0.14939795495292887
607,-0.535183862889951,-0.43478260869565216,-0.5156877536155325,0.4583333333333333,-0.07814978773514739
608,-0.34747731926386766,-0.29478260869565215,0.3546336173090213,0.7083333333333334,0.09730620896463589
609,-0.184201602664688,-0.29130434782608694,-0.35084442619363804,0.2916666666666667,-0.03700853215562921
610,-0.5180120111384368,-0.49478260869565216,-0.6642799511664212,0.125,-0.11311053632991697
611,0.004390300586311638,-0.06521739130434781,-0.5637432745139738,0.16666666666666666,-0.099048162431191
612,0.18244564642163635,0.19652173913043475,0.06312960854436174,0.5416666666666666,0.0073153184336237475
613,-0.3186705595048288,-0.2078260869565217,-0.4580620261480254,0.2916666666666667,-0.04942789738937011
614,-0.09404116364955784,-0.17043478260869566,-0.29829466742688177,0.25,-0.03401288966392977
615,0.09338657354416857,-0.05304347826086955,0.12044589259573481,0.5,0.016805144803010007
616,-0.5012693159713321,-0.47130434782608693,-0.6363698734267603,0.25,-0.09174141131800383
617,0.1581389957380001,0.17043478260869566,-4.572033503435423e-05,0.5833333333333334,-7.080505407527214e-06
618,-0.5793379620272647,-0.5347826086956522,-0.23346675715764958,0.6666666666666666,-0.02523307560918514
619,0.42058684483869047,0.41130434782608694,0.08392743216937817,0.4166666666666667,0.007556654453017851
620,-0.5216676225359995,-0.5034782608695652,0.24066521032016047,0.6666666666666666,0.048762999718198856
621,-0.10790529150938363,0.02260869565217391,-0.15333375713778047,0.5416666666666666,-0.02547904406353767
622,-0.11447096045831227,-0.08695652173913042,-0.2981960101958278,0.4166666666666667,-0.03847559865965697
623,0.5958913488164269,0.5817391304347826,0.3029507121656256,0.5416666666666666,0.048284542126220915
624,0.05712694269302007,0.006956521739130434,-0.4893866463983174,0.20833333333333334,-0.07441303382108622
625,0.17463862877505426,0.2217391304347826,-0.5160533175205403,0.125,-0.12871448025340262
626,0.24165625076015632,0.19304347826086957,-0.4421884116212272,0.25,-0.12309083302515154
627,-0.07737443320241263,-0.18173913043478263,-0.08395019024203068,0.5416666666666666,-0.00995962431753393
628,-0.27708929485888073,-0.2643478260869565,0.007812795883084258,0.5833333333333334,0.000990364893175488
629,0.19712903642846252,0.08,-0.5115727460814569,0.20833333333333334,-0.08510504002032318
630,-0.19728525270445468,-0.15304347826086956,0.2385978079195237,0.5833333333333334,0.06585908784236687
631,-0.355706436491405,-0.3930434782608695,0.3523940926869382,0.75,0.05187218981548273
632,0.2009954463103747,0.2773913043478261,0.5397572746464027,0.625,0.0575157780399627
633,-0.3740427082560097,-0.23565217391304347,0.005717760951706775,0.5,0.0006629002656414586
634,0.12012915818526802,0.05565217391304347,0.01647685926201503,0.5,0.002115598473939719
635,-0.004231600409243088,0.05130434782608695,0.3042423791301239,0.6666666666666666,0.047831190766803894
636,-0.28677139672681473,-0.3121739130434782,0.19396382444298826,0.5416666666666666,0.03657340409618104
637,0.2283311764344041,0.2504347826086956,0.6416555260083112,0.75,0.16114884958863934
638,0.5384434651392052,0.5304347826086956,0.4175845848280331,0.5416666666666666,0.06908096806224105
639,0.24882082665300445,0.26608695652173914,0.11137103056681909,0.5416666666666666,0.013702593567055256
640,-0.10156929398192274,-0.03130434782608695,0.4462895889249303,0.7916666666666666,0.0703071314385665
641,0.28868718224375833,0.2208695652173913,-0.43786567353169215,0.20833333333333334,-0.07819627867890903
642,-0.08091314000525568,-0.03565217391304347,-0.38899628722018065,0.4166666666666667,-0.05712225075182654
643,-0.5675103240513194,-0.33391304347826084,0.04688407412772037,0.6666666666666666,0.006523186710858663
644,-0.027822270026889438,0.007826086956521738,-0.6111364040939457,0.125,-0.15511358051008983
645,-0.4615009588521596,-0.37913043478260866,0.2718573830895153,0.75,0.05037484026621165
646,0.319043087150181,0.2504347826086956,0.44616480192955443,0.5,0.07899110554569662
647,-0.27421179278800933,-0.17739130434782607,0.012568044016161435,0.5416666666666666,0.0018894565207685436
648,-0.34108815736563536,-0.28782608695652173,-0.5755748090003273,0.3333333333333333,-0.07198477756657498
649,0.2901391791698578,0.2817391304347826,-0.26013936848455754,0.25,-0.04630594356437042
650,-0.08348987781484714,-0.2052173913043478,0.5031394906425588,0.75,0.12132289323954487
651,-0.4637268096748654,-0.4391304347826086,-0.2990554738152041,0.4583333333333333,-0.049272683297827885
652,0.3100607580808086,0.34956521739130436,0.038191701857670714,0.4166666666666667,0.005059246531248674
653,-0.12563380475947494,-0.10869565217391304,0.18546494960651783,0.625,0.01893435779881008
654,0.40551195884490343,0.29478260869565215,0.10063302226952142,0.4583333333333333,0.016052623252598652
655,-0.03794636876086589,-0.019130434782608695,0.06569892867857285,0.5416666666666666,0.007994851274872409
656,0.22296099258300442,0.1408695652173913,0.13029804409523907,0.3333333333333333,0.019392666619915015
657,-0.38733262802809576,-0.4260869565217391,-0.6893509202343304,0.20833333333333334,-0.13469244505944014
658,-0.09818393551355203,-0.020869565217391303,-0.4955228305966636,0.25,-0.07337108808122281
659,0.006346712369629359,-0.14608695652173911,-0.5040295901522049,0.3333333333333333,-0.07927157800371071
660,0.6517408823527349,0.551304347826087,-0.38556215641192465,0.20833333333333334,-0.11387810695879538
661,0.2651506414933037,0.27999999999999997,0.11835464735068166,0.5833333333333334,0.023519740090539247
662,0.45795246717924565,0.43043478260869555,0.02692383298322538,0.4166666666666667,0.0033962840102256284
663,0.25815408808308415,0.20608695652173914,-0.45264861362170616,0.16666666666666666,-0.101405074645333
664,-0.2915025157820774,-0.42,-0.2307627681204034,0.5,-0.024536968189679043
665,-0.03237144506372587,0.04869565217391304,-0.498863309728253,0.2916666666666667,-0.05877749301837821
666,-0.4536443965018412,-0.3782608695652173,-0.698376646395394,0.25,-0.1146088280096525
667,0.5737667774126995,0.5147826086956522,0.0862218768714563,0.375,0.013859258813150256
668,0.5269860534112045,0.4060869565217391,0.6207146655194749,0.7083333333333334,0.11513194449388829
669,-0.0505255757264509,-0.05913043478260869,0.5877738811410052,0.875,0.1561296207347258
670,-0.754762055546741,-0.6530434782608695,-0.8613512532790755,0.20833333333333334,-0.16998999158698666
671,-0.10412580167940198,0.05217391304347826,0.2676560247418135,0.625,0.03706818334143742
672,-0.0012996199599744351,0.12869565217391304,-0.3380529484282142,0.375,-0.045224031593744995
673,-0.015237712287118982,0.13999999999999999,0.3477336297706104,0.75,0.05028962955945237
674,-0.7162443347960883,-0.7452173913043478,-0.8579897156785203,0.125,-0.19893036331646413
675,0.3631067754600345,0.2721739130434782,0.4156619574084161,0.625,0.06673604559294016
676,0.4255471700932735,0.3478260869565217,0.458935200619579,0.6666666666666666,0.08914634622620987
677,-0.2508629283027274,-0.33391304347826084,0.045305962771935174,0.4583333333333333,0.006365384797593102
678,0.0028053525625507704,-0.08347826086956521,0.007955693311876035,0.5833333333333334,0.0011628486671557592
679,0.5089690505180916,0.5252173913043477,0.31907250732968523,0.5833333333333334,0.04415568102172946
680,0.2445954460087799,0.27391304347826084,0.6514096130476861,0.8333333333333334,0.09648336232831088
681,-0.6399745828150633,-0.58,-0.3826005333839551,0.5416666666666666,-0.04833997216407042
682,-0.5881135823191821,-0.551304347826087,-0.06374883566073537,0.7083333333333334,-0.01108995846479619
683,-0.3922729253281032,-0.35913043478260864,0.33944857098823117,0.7083333333333334,0.08019488528684666
684,0.3234382050586796,0.2939130434782608,0.6589790903444877,0.7916666666666666,0.12203393705254244
685,0.37729838764586426,0.42173913043478256,0.22224159962713705,0.6666666666666666,0.04180062989446494
686,0.01189238822330603,-0.049565217391304345,-0.4509490419595644,0.25,-0.04062605681944112
687,0.20935523967328418,0.1878260869565217,0.5850917120097312,0.6666666666666666,0.12296143457761544
688,-0.3624658462141277,-0.38434782608695645,-0.03177446629434923,0.4583333333333333,-0.005036452777419896
689,-0.20158974181630973,-0.2478260869565217,0.2576056269073623,0.7083333333333334,0.04004555088853505
690,-0.5145521088731717,-0.4452173913043478,0.20334222583645284,0.6666666666666666,0.04714391574795544
691,0.04843512890752128,0.042608695652173914,-0.26828244618236397,0.3333333333333333,-0.03919379778276773
692,0.005741855692881007,-0.027826086956521737,0.5553130884174869,0.7916666666666666,0.11867050233142902
693,-0.6071772068829051,-0.5634782608695652,-0.1991981689736736,0.5833333333333334,-0.03538895083161552
694,-0.20757144905861818,-0.25217391304347825,-0.06067794940077323,0.5416666666666666,-0.009545196019522655
695,-0.19046806806866057,-0.17913043478260868,-0.5418005174414144,0.3333333333333333,-0.11349778011526597
696,0.1784261940926239,0.21391304347826084,-0.08541074217581855,0.375,-0.012840310100206287
697,-0.3356827718461246,-0.2678260869565217,-0.5515105296076582,0.3333333333333333,-0.09663122464997577
698,0.5149964145460214,0.4208695652173913,0.03113164099249679,0.4166666666666667,0.004399167366898155
699,-0.2669183918460999,-0.29913043478260865,-0.5543578778972497,0.20833333333333334,-0.12056796858019694
700,-0.013762808053092032,0.013913043478260868,-0.11832278191087672,0.5,-0.022062509350306746
701,0.31407593966941477,0.30347826086956514,-0.3293831046626342,0.20833333333333334,-0.07168719857371326
702,-0.3168258394043189,-0.19652173913043475,0.02181657254625234,0.5416666666666666,0.0034697651005766083
703,-0.4197479090374992,-0.40695652173913033,-0.20960071341792058,0.4583333333333333,-0.03313089101349053
704,-0.2863467207555036,-0.3078260869565217,0.19784333339959886,0.625,0.029312799353163964
705,-0.09031118852522421,-0.11391304347826085,0.4135369403711867,0.7083333333333334,0.07706162953247052
706,-0.1789427580556807,-0.10173913043478258,-0.38869113782321685,0.4166666666666667,-0.056036689585179794
707,0.2945638781179264,0.26608695652173914,-0.18132835839766542,0.4166666666666667,-0.030426675875206418
708,-0.2443699670449682,-0.29913043478260865,-0.5298642562420658,0.3333333333333333,-0.09622936919818587
709,0.16893785816958684,0.19130434782608693,-0.12261721242343133,0.5,-0.017259310586431844
710,0.04636590350740663,0.1217391304347826,0.4543564051126353,0.625,0.10372870057431392
711,-0.17297457796839494,-0.13565217391304346,-0.6512438869184275,0.16666666666666666,-0.1452876801630486
712,0.3618475980048548,0.33999999999999997,-0.30563851898461813,0.375,-0.07436060163336998
713,-0.29592158166097143,-0.29913043478260865,0.28852992501020475,0.6666666666666666,0.05694661277236538
714,-0.26927839758449296,-0.2582608695652174,-0.3462361729295437,0.5416666666666666,-0.03584390051294168
715,-0.5821318151760252,-0.4417391304347826,-0.15623137005315402,0.6666666666666666,-0.025057565295747174
716,0.16099622971200162,0.12,0.3580521588829966,0.6666666666666666,0.0576537115330719
717,-0.16713918658145804,-0.13565217391304346,-0.019605767828030432,0.6666666666666666,-0.0027144879766587407
718,0.4183142625586507,0.4121739130434783,0.5672809257847338,0.75,0.07612642548636442
719,-0.5310783093404534,-0.5539130434782608,-0.05884163006243113,0.5833333333333334,-0.009404646436402823
720,-0.12464248010706033,-0.010434782608695651,0.31639534535992025,0.625,0.036470947567819295
721,0.3018424070600661,0.328695652173913,0.6188817984996151,0.7083333333333334,0.10048319328631841
722,-0.28964913821031385,-0.2069565217391304,0.2662231281996346,0.6666666666666666,0.05299566761966386
723,0.07574067988096257,0.1417391304347826,0.6345619072125778,0.875,0.12313089482811987
724,-0.39053393877791753,-0.3426086956521739,-0.2181160189255678,0.4583333333333333,-0.031248947661733986
725,-0.18475138532018212,-0.18173913043478263,-0.08496736108958164,0.4583333333333333,-0.014675477130496186
726,-0.13086534411451708,-0.24695652173913044,-0.6597001963221699,0.125,-0.12902706780411582
727,0.24647959836748104,0.2895652173913043,-0.17013085855501034,0.3333333333333333,-0.02774142433111783
728,-0.23784283808614623,-0.1695652173913043,0.11717317396620303,0.5,0.023718650043225962
729,0.13627776085274157,0.1026086956521739,0.25445401338160695,0.7083333333333334,0.04283020440594812
730,0.20571298795614804,0.08434782608695651,0.12216730778274518,0.4583333333333333,0.012933314476600533
731,0.35302615348374444,0.34347826086956523,0.6684779824362921,0.75,0.10516476668896885
732,0.399734219300691,0.2478260869565217,0.6439508464862687,0.75,0.07331924087701734
733,0.35317487791777236,0.23391304347826083,0.5378106766806765,0.7083333333333334,0.10564235633058684
734,0.6277751702799534,0.5017391304347826,0.8148933962097885,0.7916666666666666,0.17375207601194773
735,-0.016529129372052066,-0.0634782608695652,0.5408719878146002,0.7916666666666666,0.10988495765897276
736,0.34594737249844454,0.4391304347826086,0.23142613264428677,0.5,0.032745199170294025
737,0.00314447527627805,-0.08086956521739129,-0.05578023000865848,0.3333333333333333,-0.006484633260227239
738,0.10875068318644143,-0.003478260869565217,0.4400688488768429,0.75,0.08070595339660831
739,-0.12928107284400328,-0.10782608695652172,0.19532456273063104,0.625,0.03217428239747116
740,-0.4482827275533125,-0.3878260869565217,-0.6482905259245073,0.25,-0.08631145768575445
741,-0.03622895957834731,-0.1208695652173913,0.23782759189921496,0.625,0.025404640329770547
742,-0.5600813643910636,-0.6130434782608695,-0.6198980851870622,0.2916666666666667,-0.07832572413196637
743,0.21616826267706535,0.2417391304347826,-0.09468906571185784,0.4583333333333333,-0.0157516168600444
744,0.30943326938583005,0.33304347826086955,0.6472348243297351,0.7916666666666666,0.0843658889922176
745,0.46363752678095566,0.4530434782608695,0.5026336509840875,0.6666666666666666,0.07313124295991993
746,0.3879315998201848,0.43043478260869555,-0.1539159514669601,0.3333333333333333,-0.030549251936513873
747,-0.5839588572204994,-0.5504347826086956,-0.8016996998515684,0.125,-0.17538185146730553
748,0.093458689713313,0.07913043478260869,0.40398219921574424,0.7083333333333334,0.05177988359536317
749,-0.7385386254555257,-0.7408695652173911,-0.08500645413197172,0.625,-0.016693040094788805
750,-0.7529981079509844,-0.7304347826086957,-0.8366558742954715,0.20833333333333334,-0.12278596000986504
751,-0.18513685080433329,-0.1782608695652174,-0.6321992118893417,0.125,-0.12218288734200812
752,-0.20123924915628272,-0.12956521739130433,-0.149271430512893,0.5,-0.012865805550846895
753,-0.21878454991016236,-0.17652173913043476,-0.13298690337283092,0.4166666666666667,-0.020883775249487903
754,-0.6300960347325608,-0.5260869565217391,-0.6039503534652292,0.375,-0.12207216542715726
755,0.3260781076466626,0.1408695652173913,-0.1958415133704409,0.2916666666666667,-0.02978864439085562
756,-0.09896433321864435,-0.08,-0.4131327670715857,0.3333333333333333,-0.04530198605222552
757,-0.4044685190415127,-0.33304347826086955,-0.6390361931029753,0.3333333333333333,-0.14751081798376176
758,-0.5799914734405696,-0.7269565217391305,-0.3084598318073454,0.4166666666666667,-0.038285524535955996
759,-0.2983540671614983,-0.2539130434782608,-0.6020583662940062,0.20833333333333334,-0.09651871076434326
760,0.17741843659786494,0.23652173913043475,-0.23802309401462288,0.4166666666666667,-0.04189322957948508
761,0.39187727117660415,0.2495652173913043,0.24730464590759865,0.4583333333333333,0.048794235759988085
762,0.042277443579433645,0.07217391304347825,-0.3020463333693702,0.2916666666666667,-0.038863936006837484
763,0.07366230070543325,0.05652173913043478,0.38904628395525587,0.5833333333333334,0.07281198779525186
764,0.5149905077906618,0.4878260869565217,0.7721737975384823,0.9166666666666666,0.20888521535766288
765,0.020426665244834736,0.08956521739130434,0.4036481435757121,0.625,0.04346082297558527
766,-0.002771692310369881,-0.05913043478260869,0.4178819615608517,0.6666666666666666,0.03967642458037482
767,0.5282989810402021,0.5756521739130435,0.6482290202514212,0.625,0.11793753015225464
768,0.09644005459307145,0.09391304347826085,-0.5430409212261779,0.20833333333333334,-0.12407693747531305
769,-0.38718381612899255,-0.38608695652173913,-0.38484339066202655,0.3333333333333333,-0.05179543518264951
770,-0.3055202988067515,-0.2252173913043478,-0.26118841991219155,0.4583333333333333,-0.04451279358919837
771,0.6288498134608471,0.48869565217391303,0.19410585190737092,0.4166666666666667,0.03991967987811026
772,0.16184745129436892,0.15739130434782608,0.539049392571514,0.7916666666666666,0.0934627572623689
773,-0.3269993312594892,-0.2895652173913043,0.285602328996413,0.7083333333333334,0.030844079273356566
774,-0.23367654125875836,-0.19391304347826085,0.5160964148165164,0.875,0.15672681999687965
775,-0.006774488814074275,-0.05130434782608695,0.5234617909673945,0.7916666666666666,0.11489065058967174
776,0.35744787578624787,0.3608695652173913,0.3164096917343324,0.5833333333333334,0.03381215662833486
777,-0.09025237172379001,-0.09652173913043478,-0.39793636210517197,0.2916666666666667,-0.04952693685292665
778,0.5517326944724806,0.54,0.743765843206461,0.7916666666666666,0.14838265545797752
779,-0.08536330759010262,-0.11391304347826085,-0.1325273301617505,0.4583333333333333,-0.015083234093369579
780,-0.2682990692813313,-0.2713043478260869,0.03057138948820526,0.5416666666666666,0.00464068489570349
781,-0.5468637079396825,-0.5208695652173913,0.2625943626067012,0.7916666666666666,0.050054619232005555
782,-0.011311856274161376,-0.12,0.3898053953951531,0.8333333333333334,0.055689181484050804
783,-0.24912203221103357,-0.2782608695652174,-0.6167613697579333,0.20833333333333334,-0.08812496133387089
784,0.5307571727749822,0.47130434782608693,0.6928325743820789,0.7916666666666666,0.11560045477395249
785,0.6061339494633389,0.4260869565217391,0.300169987230668,0.4583333333333333,0.033709718737291006
786,0.27540145697832336,0.15565217391304348,-0.18933594711447554,0.25,-0.04076629348390757
787,-0.6710346680308755,-0.6278260869565216,-0.4483737645348673,0.5,-0.07709908899906097
788,0.2783611848946176,0.22347826086956518,-0.48405088466002677,0.20833333333333334,-0.11562935107287313
789,0.19032922591847784,0.21565217391304345,0.05739387986192991,0.5,0.009959996439441194
790,-0.038579477666814486,0.019130434782608695,-0.3445933193485527,0.5416666666666666,-0.04365075717703435
791,-0.5391824267491558,-0.4504347826086956,0.10186563609210762,0.7083333333333334,0.013773584899041865
792,0.1395093197524596,0.047826086956521734,0.5164618461964459,0.75,0.09648684965638687
793,-0.42700004034088485,-0.3991304347826086,-0.6429902877953618,0.3333333333333333,-0.11566542494403173
794,0.003314220720247993,0.02260869565217391,0.39775881317975664,0.5833333333333334,0.04867143972002145
795,-0.15864838756480315,-0.13391304347826086,0.3952435075118633,0.6666666666666666,0.052572703840054254
796,0.29346086103253033,0.24434782608695652,0.20009847306665868,0.5416666666666666,0.027855355905937462
797,-0.050106424334740794,0.042608695652173914,0.052109936879619206,0.5833333333333334,0.008600615403212905
798,-0.23272622345886426,-0.13130434782608694,-0.6660823992268248,0.20833333333333334,-0.13527797708241013
799,-0.2805164484539587,-0.37652173913043474,-0.46549464058502926,0.3333333333333333,-0.08144160938483912
800,-0.04836649611752497,-0.017391304347826087,0.4229747119363341,0.625,0.05868591825173299
801,-0.5863969963849621,-0.5191304347826087,0.13549904921555447,0.625,0.02821781829656213
802,-0.3314932707338326,-0.3478260869565217,0.11276819235971777,0.6666666666666666,0.01938834649711078
803,0.29059744682665245,0.26347826086956516,0.5777169870277101,0.75,0.10278935429993546
804,0.5009332257245329,0.4452173913043478,0.06306421951458933,0.4166666666666667,0.009309403006480333
805,-0.12552194614013965,-0.08521739130434783,-0.1473564068387351,0.5416666666666666,-0.020414302942440492
806,-0.6145163887289593,-0.6226086956521739,-0.28890532762923793,0.4166666666666667,-0.057895239630006104
807,-0.5384958444846624,-0.6026086956521738,-0.4862850635461512,0.4166666666666667,-0.05792803093092416
808,-0.16231422023330122,-0.23217391304347823,-0.4049977112930581,0.375,-0.049237932129826356
809,0.2884192299271735,0.4626086956521739,-0.342102468454072,0.20833333333333334,-0.07945503888883616
810,-0.31920024922428103,-0.11652173913043477,-0.16615343685093464,0.5833333333333334,-0.018998537978910546
811,0.48403019966939614,0.4843478260869564,0.7445229748333392,1.0,0.10800594087400736
812,0.09753674565476494,0.05391304347826086,0.36560813172032863,0.625,0.04939219520453009
813,0.2477693062514453,0.18956521739130433,0.5884131560329604,0.7916666666666666,0.13630104344212646
814,0.4539032904889847,0.47391304347826085,0.20706322229340454,0.375,0.03772063271536623
815,-0.31879039004395837,-0.3530434782608695,0.32355351209388,0.7916666666666666,0.03949989672191996
816,-0.23575441305631514,-0.20347826086956516,0.026269129882696512,0.5416666666666666,0.0035770575118465797
817,0.1905140704438339,0.23826086956521736,-0.3345700107894895,0.3333333333333333,-0.06485405830685381
818,-0.33936114413811996,-0.17391304347826084,-0.01089015242734438,0.5833333333333334,-0.0012629208910794388
819,0.5461012200081468,0.46173913043478254,0.10403611707472855,0.375,0.019142885218607367
820,-0.2696732771732155,-0.35826086956521735,0.3431777880977758,0.8333333333333334,0.06405839762296683
821,0.03238089448851442,-0.08086956521739129,0.27888006084834005,0.5833333333333334,0.034019702538347116
822,0.4819904101991614,0.5069565217391303,0.7409766246663115,0.8333333333333334,0.1089910388661223
823,0.6357708784180292,0.5982608695652173,0.6826589880124125,0.7083333333333334,0.0686489007247147
824,0.10667838736684672,0.16260869565217392,0.135525753665703,0.5,0.01937180430065122
825,-0.14885573294819954,-0.19652173913043475,-0.5223432115906587,0.2916666666666667,-0.07538143960144672
826,0.027617908269833843,0.06434782608695652,0.4624611409387822,0.75,0.08166818158899043
827,-0.0029767303070819956,0.0,-0.3240409595690578,0.375,-0.03960778124746693
828,-0.4029024040903946,-0.24086956521739128,-0.7251651250969632,0.041666666666666664,-0.102286809879793
829,0.20083348080026064,0.1034782608695652,0.29698904280724303,0.5416666666666666,0.04041636244034562
830,-0.23829194005170318,-0.2121739130434782,-0.08393979388902678,0.4166666666666667,-0.010204690438062164
831,0.4121642868695614,0.38608695652173913,0.6742200505601811,0.8333333333333334,0.12354673215088965
832,-0.33270534547025565,-0.31478260869565217,0.03903555716430011,0.5833333333333334,0.00621110691182614
833,-0.3013207396187652,-0.268695652173913,0.3855575970734128,0.7916666666666666,0.07164035337832647
834,0.5431273685970199,0.5130434782608695,0.3442736727114621,0.625,0.044598590718846004
835,0.5187263887441153,0.5695652173913043,0.5602708942045925,0.5416666666666666,0.06976246551844607
836,-0.19585016424529783,-0.2617391304347826,0.4451532614817835,0.7916666666666666,0.1061500970330715
837,-0.2730110078035246,-0.2617391304347826,0.3981672487571829,0.7083333333333334,0.09611969299996222
838,-0.14984841860055956,-0.07304347826086956,0.39764603474807064,0.75,0.06478042361299018
839,0.007827305485352529,-0.0017391304347826085,-0.22887741599811873,0.4166666666666667,-0.029486977004794423
840,0.2977047226565511,0.268695652173913,0.35129805171351075,0.5,0.052260001541020555
841,-0.5560923959609526,-0.6478260869565217,0.12737098326067173,0.5833333333333334,0.017511768736787243
842,0.10776073242934374,0.11826086956521738,0.12930021185888385,0.625,0.01720976612338052
843,-0.2308964008035299,-0.29304347826086957,0.11004373619597013,0.5833333333333334,0.016604329375752576
844,-0.02359658335812302,0.013913043478260868,-0.5956573896623449,0.25,-0.1238409149354826
845,0.20313043110607953,0.248695652173913,-0.23032013383108105,0.375,-0.030620176181708845
846,0.42200228489617997,0.368695652173913,-0.3681919723189773,0.16666666666666666,-0.06555679037685785
847,-0.1211174644832057,-0.13826086956521738,0.5635775795027346,0.8333333333333334,0.1550483051349539
848,-0.520959803394142,-0.58,0.05688301692506759,0.5,0.012047633912352924
849,-0.19248271793526278,-0.18086956521739128,-0.5111556817481863,0.16666666666666666,-0.07154835207973959
850,-0.35850837349546827,-0.3869565217391304,-0.27076953659485137,0.5,-0.054404400304071766
851,0.5187587257583957,0.5634782608695652,0.034382642538286115,0.4583333333333333,0.003842435947524153
852,0.25431311543874596,0.25130434782608696,0.28080393377377755,0.6666666666666666,0.0354381839592234
853,0.4230609012116107,0.40782608695652167,0.6568885876851167,0.75,0.11552652895222694
854,-0.23768723714380352,-0.1678260869565217,-0.2779684314913042,0.4166666666666667,-0.03664841933139074
855,0.4700293352385779,0.3556521739130434,0.30466903633641457,0.5416666666666666,0.04240167044580968
856,0.0863990129177227,0.06956521739130435,0.5543873632475245,0.7916666666666666,0.0827748801690306
857,0.08174379385252764,0.09130434782608696,-0.5334419772845285,0.16666666666666666,-0.08896778999208478
858,0.687411841916866,0.7217391304347825,0.3021117715157468,0.4166666666666667,0.042002232807810964
859,0.37235629168151213,0.3139130434782608,-0.1063147593400274,0.375,-0.02320837455144096
860,-0.09271939978024693,-0.0017391304347826085,0.23893100695716535,0.5416666666666666,0.02986682564187241
861,-0.5927349399938029,-0.5539130434782608,-0.5616995989097562,0.3333333333333333,-0.08406713307623279
862,0.41225832323949674,0.3652173913043478,0.3490243171128806,0.625,0.04587953303507997
863,0.255395185138911,0.21565217391304345,0.649464369988465,0.7083333333333334,0.15280055141343168
864,-0.48374288814456046,-0.4434782608695652,0.08184820595496942,0.6666666666666666,0.015523297825907681
865,0.039122463613812726,0.0608695652173913,0.5976461715421589,0.8333333333333334,0.2234599366678037
866,0.5579667323771276,0.5852173913043477,0.29390089685766413,0.625,0.04558527379632888
867,-0.02781110427790822,-0.08,0.13306253659941014,0.5833333333333334,0.028678305169791096
868,0.32109620356505475,0.3060869565217391,-0.13654677608594507,0.4166666666666667,-0.02989581599636498
869,0.06827556430517133,0.013913043478260868,0.5769966080748338,0.7916666666666666,0.14769404962482466
870,-0.5055325525194438,-0.3756521739130434,-0.2934651075324464,0.375,-0.04016543662548362
871,-0.537493073929794,-0.5243478260869565,-0.44224408318960945,0.4583333333333333,-0.051264098189085755
872,-0.1886487455320863,-0.11391304347826085,0.03678192931687133,0.625,0.0053415465587207285
873,0.18611539302351926,0.17130434782608694,0.4530279243174203,0.6666666666666666,0.07842743643011064
874,0.25294328927167753,0.35826086956521735,0.03481265092473503,0.5416666666666666,0.0034894895072855444
875,0.2918953139057834,0.2078260869565217,-0.2317346687346953,0.375,-0.027158976867064085
876,0.019388365655906625,-0.0008695652173913043,-0.2586598649101999,0.2916666666666667,-0.04521672347391739
877,0.25873923890250305,0.3104347826086956,-0.12192440906969539,0.4166666666666667,-0.02180595728346669
878,0.060660404581431814,0.10956521739130433,-0.4378509748278575,0.3333333333333333,-0.09331738216387579
879,-0.2733861476634674,-0.15304347826086956,-0.2514474068647916,0.5416666666666666,-0.03239653770638097
880,-0.1447179545916631,-0.11217391304347826,0.39479345026272605,0.7083333333333334,0.09166018907883879
881,-0.1333030389964908,-0.09217391304347824,0.43737493033683517,0.7083333333333334,0.09181970462840383
882,0.24217501576417938,0.2434782608695652,-0.44878011464323364,0.16666666666666666,-0.09296824662858108
883,-0.16733799834490415,-0.11913043478260868,0.5215515045936376,0.7916666666666666,0.1044398433775727
884,-0.16660070474249894,-0.2121739130434782,-0.025197223040584506,0.4583333333333333,-0.0022554982983537856
885,0.5005663390065418,0.4121739130434783,-0.34758952682612043,0.20833333333333334,-0.0670041059973831
886,0.23157585609673342,0.23826086956521736,-0.07057456301924266,0.375,-0.015946357855631914
887,-0.22757538156424545,-0.12956521739130433,-0.36631325687986727,0.25,-0.0526927476269684
888,-0.6711875409740267,-0.5652173913043478,-0.15286274066381936,0.5416666666666666,-0.02004246053009741
889,-0.5340737891731737,-0.5443478260869564,0.041798353462763206,0.5833333333333334,0.00845987377200162
890,0.29540067822691707,0.26086956521739124,0.4548898612628435,0.6666666666666666,0.07495097575425735
891,-0.2079975846809501,-0.15565217391304348,-0.36544577982664384,0.4166666666666667,-0.04615313011165405
892,-0.18053935408153188,-0.09217391304347824,-0.5602431944831796,0.2916666666666667,-0.1008990348102692
893,-0.2819366331229921,-0.3660869565217391,0.005305045531166609,0.5,0.0006613006070411707
894,0.3668696465338689,0.33739130434782605,0.19714870671457402,0.4166666666666667,0.030276668421077332
895,-0.16594740949694486,-0.13739130434782607,-0.4727385474925306,0.2916666666666667,-0.0814801598681992
896,-0.45024581193109203,-0.33999999999999997,0.025516382427789162,0.625,0.0035288880372616044
897,0.17621098083830028,0.14260869565217388,0.21262867649291556,0.5416666666666666,0.025434298149077248
898,0.367027034222303,0.3026086956521739,0.7168284653836942,0.8333333333333334,0.2163965571112933
899,-0.18770966648659587,-0.14956521739130432,0.20004798640039143,0.7916666666666666,0.02823702624224012
900,-0.10175311728746034,-0.07304347826086956,-0.2174168465989314,0.4583333333333333,-0.03265621327150585
901,0.26423594531529077,0.28782608695652173,-0.13507646011903648,0.4166666666666667,-0.0220073166113243
902,0.19687063512314462,0.11304347826086956,-0.40277232351259273,0.2916666666666667,-0.059544815656276354
903,-0.31934155668114905,-0.3878260869565217,0.0707014845139841,0.625,0.012001717072877983
904,0.2282158316279673,0.19478260869565217,-0.15220149934818425,0.375,-0.028424336190238625
905,-0.1930470531966984,-0.23478260869565212,0.28060502838821577,0.6666666666666666,0.04211055187758335
906,0.020887846326850826,-0.03043478260869565,-0.1852847828485018,0.4166666666666667,-0.016985315163707205
907,-0.04190946326533852,-0.05826086956521739,0.5203633573378648,0.8333333333333334,0.14026414418104108
908,0.04619619669973639,0.11913043478260868,0.05528336448980819,0.4583333333333333,0.009907602337824763
909,-0.25115873779044207,-0.28521739130434776,0.49473282027025145,0.7916666666666666,0.13939362012525588
910,-0.14291741876962163,-0.25478260869565217,-0.010507937818524741,0.5,-0.001877126494115897
911,-0.0748019345606415,0.00608695652173913,-0.5304546058279374,0.25,-0.13169494260441147
912,0.3023081721250478,0.29913043478260865,-0.1397064918068402,0.5,-0.012865832563233013
913,-0.27434524892059625,-0.3052173913043478,-0.2867607990206691,0.4166666666666667,-0.03746192878780508
914,0.0002263145029003516,0.0,0.30302313187768365,0.625,0.049641792753946506
915,0.017113651024579644,0.12869565217391304,0.4068891508284175,0.75,0.0570874273354698
916,-0.41264202820282064,-0.3695652173913043,-0.38800378642307476,0.3333333333333333,-0.06678561166145768
917,-0.5265189266537751,-0.36173913043478256,-0.7603919339086143,0.08333333333333333,-0.16711290203978815
918,0.12068660197280101,0.14869565217391303,-0.22075200173147902,0.2916666666666667,-0.022136081552706476
919,0.04321823916139036,0.10173913043478258,-0.3411666044214872,0.2916666666666667,-0.0338378936978086
920,-0.19495361851468765,-0.3208695652173913,-0.13329701274632655,0.3333333333333333,-0.02471072108908153
921,-0.11943592569837069,-0.14608695652173911,-0.21730237813255243,0.5416666666666666,-0.030218960267895955
922,-0.47662207033922266,-0.3278260869565217,-0.10187752382078959,0.4583333333333333,-0.007042278923157827
923,0.19999851699744725,0.2478260869565217,-0.15603039441101108,0.375,-0.025255850288461605
924,-0.0996300508305561,-0.008695652173913044,-0.2530387809280436,0.4166666666666667,-0.03431165685616034
925,0.13348556665347275,0.1034782608695652,0.5655857135851594,0.7916666666666666,0.13241209727789008
926,-0.40111575783974596,-0.35913043478260864,-0.5054180021557397,0.2916666666666667,-0.06723631269063936
927,-0.6070962522581045,-0.5869565217391304,-0.6538209751365288,0.2916666666666667,-0.1068653219296671
928,0.3282369863312131,0.2669565217391304,0.24888975664885246,0.5416666666666666,0.03992528380326354
929,0.1417447383914897,0.1469565217391304,-0.06616961202657434,0.375,-0.00797949766069945
930,-0.5053535109840298,-0.5347826086956522,0.09546103242751042,0.625,0.01771686793842056
931,0.3199202792402812,0.29739130434782607,-0.5686883211943259,0.125,-0.18148129508730282
932,0.3246533542218405,0.3652173913043478,-0.03463810438693915,0.4583333333333333,-0.0050659049030363805
933,-0.053154835832672054,-0.11652173913043477,-0.36387166539481414,0.375,-0.04648607033033756
934,-0.6062135522465495,-0.5626086956521739,-0.7619824076245746,0.16666666666666666,-0.13947167150504414
935,-0.32577862010776326,-0.3391304347826086,-0.6487480202906912,0.08333333333333333,-0.06363047671327278
936,-0.30416048837768267,-0.2069565217391304,-0.42391275594807526,0.3333333333333333,-0.06109066363247047
937,0.20567151370163028,0.1660869565217391,0.6614399074790434,0.75,0.14332183877749322
938,0.1978555594636902,0.22,0.06072822219475395,0.4166666666666667,0.007351345726239579
939,0.2826788385135232,0.23652173913043475,0.08970029549871919,0.4166666666666667,0.01638599037768408
940,0.34391545355807834,0.32695652173913037,0.566413425728456,0.8333333333333334,0.07138497913949902
941,-0.22239572017019804,-0.1591304347826087,-0.4536603783794857,0.3333333333333333,-0.08673221877709696
942,-0.28573448609511476,-0.3643478260869565,-0.5034596646407998,0.3333333333333333,-0.060593329023340525
943,0.6871874044651957,0.5930434782608696,0.5750788964200444,0.625,0.11018839653266142
944,-0.233295848099181,-0.16695652173913042,-0.43101585724768987,0.375,-0.06858843114577205
945,0.2910342486025888,0.33391304347826084,0.06705826870398852,0.5,0.009254791689940747
946,0.15125613395320067,0.06956521739130435,-0.022729824016065214,0.5,-0.0033347676590421587
947,0.7278978246657997,0.697391304347826,0.6467929541099401,0.625,0.11476326327809346
948,-0.04044927074066901,0.01652173913043478,-0.245609288766661,0.5,-0.028571208463646927
949,-0.11768870898809367,-0.11217391304347826,-0.11614491957536574,0.5,-0.018837241094230628
950,0.422994538711851,0.38608695652173913,-0.1110549564245429,0.4166666666666667,-0.016807561107521362
951,-0.3155440373970663,-0.29304347826086957,0.32599746308976646,0.75,0.05765181234991034
952,0.04687672211776263,0.07913043478260869,0.2850765251885578,0.6666666666666666,0.04436116096519371
953,-0.08264108588293609,-0.11043478260869564,0.5289858983600298,0.7916666666666666,0.1204617593115006
954,-0.11695372010627159,-0.01826086956521739,-0.49020793040783844,0.3333333333333333,-0.049614703699801414
955,-0.40708923491488114,-0.37478260869565216,-0.6779792113230214,0.20833333333333334,-0.1373372245291337
956,-0.5039131898761517,-0.5365217391304348,-0.2899429872310367,0.5,-0.04878917804284762
957,-0.3557895962358709,-0.3678260869565217,-0.5724172159536368,0.3333333333333333,-0.08138196107111391
958,-0.26166739476953665,-0.2008695652173913,-0.6276826569931783,0.25,-0.11911123628601201
959,-0.4322011632596899,-0.328695652173913,-0.00431063703081547,0.5416666666666666,-0.00047381794515009997
960,-0.320135998291592,-0.3060869565217391,0.40138150646432846,0.7916666666666666,0.08630907574169724
961,-0.5144452245357293,-0.3678260869565217,-0.42565175711837333,0.5833333333333334,-0.04682229179416724
962,0.292049260248865,0.2895652173913043,0.08271492317859924,0.4583333333333333,0.012739661523206155
963,0.4933640085107096,0.3208695652173913,0.10424531332189019,0.4583333333333333,0.019019642877082864
964,0.21823386387589022,0.16347826086956518,0.46335018314300985,0.625,0.07942864669545338
965,0.42831510416673685,0.44434782608695644,-0.13632608137380528,0.375,-0.016044204784400298
966,0.019817006542522587,0.08869565217391304,0.4940391071572058,0.7916666666666666,0.1005898335164303
967,-0.543780950753633,-0.4843478260869564,-0.6915152284489563,0.3333333333333333,-0.12636209723474515
968,-0.06599480866424486,0.04347826086956521,0.22863218822917614,0.6666666666666666,0.038197800802908875
969,0.4097559502202699,0.3173913043478261,0.15211030655575167,0.4583333333333333,0.028291250283364835
970,-0.40796827895879256,-0.40869565217391296,0.07373824668208315,0.625,0.008101970774826951
971,0.5987511184163004,0.6252173913043478,0.8081514639999949,0.875,0.17922245254151659
972,-0.2697091417336281,-0.28521739130434776,-0.21827257110261866,0.5416666666666666,-0.02498792236389648
973,0.07355220504862459,0.05826086956521739,-0.06789469253575708,0.5833333333333334,-0.007945824458761727
974,-0.7181306214153643,-0.6043478260869565,-0.238550728570076,0.5833333333333334,-0.03298627067402219
975,0.15093765056083924,0.03130434782608695,0.5836118605085134,0.8333333333333334,0.10297809057258898
976,0.46398678788249703,0.4904347826086956,0.5639811456280116,0.5416666666666666,0.07348900121382201
977,-0.13396222645336087,-0.11565217391304347,-0.2675176448487788,0.25,-0.035391300898013206
978,0.2909827063725555,0.22347826086956518,0.17144391213726276,0.5416666666666666,0.027498983849353734
979,-0.22328953559853404,-0.1452173913043478,-0.31442380398202324,0.4166666666666667,-0.03647077114524412
980,0.4645941923670912,0.47391304347826085,0.3709599017603957,0.5833333333333334,0.06494282388913053
981,-0.2452618475373516,-0.2817391304347826,0.5167570546206893,0.875,0.14861849111522168
982,-0.06889556875567888,-0.023478260869565212,-0.5846441191347379,0.20833333333333334,-0.11665251799377961
983,-0.2624266465476387,-0.20956521739130432,0.346191310216599,0.7083333333333334,0.05316274490992915
984,0.07896925731583576,0.10086956521739131,0.22828206854002772,0.4166666666666667,0.034648881229610205
985,-0.1762714137674625,-0.12347826086956522,-0.24647450710049135,0.4166666666666667,-0.021688857194935393
986,-0.3811698375945576,-0.4730434782608695,-0.47621557335309006,0.3333333333333333,-0.057983786520152535
987,-0.371349556273606,-0.44869565217391305,-0.4811756999123463,0.2916666666666667,-0.085499267316829
988,0.017820344612403227,0.040869565217391296,0.5396297982812933,0.7916666666666666,0.10651509637893518
989,-0.19984122096047124,-0.21913043478260866,-0.6888585449932431,0.125,-0.17086745187284
990,0.5333775121041411,0.5078260869565216,0.07014315905802576,0.5,0.011913805052395855
991,-0.5643054784483754,-0.4869565217391304,-0.6203227496009238,0.3333333333333333,-0.08879649136983292
992,0.28660223803942964,0.3408695652173913,-0.35873648124365426,0.25,-0.06784842664360027
993,0.36046123333742197,0.2217391304347826,0.0038313887756789822,0.375,0.0004826366870952312
994,-0.000988263309373981,-0.10521739130434782,0.05303211492411291,0.5833333333333334,0.006540652321906817
995,-0.04349265881252813,0.07043478260869565,0.37645238472151504,0.6666666666666666,0.0818608085481815
996,0.35132030634449457,0.26347826086956516,-0.27185584355984016,0.3333333333333333,-0.05216950373931445
997,0.16187827777342387,0.12869565217391304,0.07217229624199274,0.4583333333333333,0.01303471679076681
998,-0.45443567346693176,-0.42260869565217385,-0.2588731810921247,0.4583333333333333,-0.028621232728702515
999,0.18445710856315106,0.17913043478260868,-0.120214550022051,0.375,-0.016912510987272342
